Created as New Dataset,Sample 436 By Analyst Date Tuesday, June 13 2023
cm-1,%T
4000.00,100.02
3999.00,100.02
3998.00,100.02
3997.00,100.02
3996.00,100.02
3995.00,100.02
3994.00,100.01
3993.00,100.01
3992.00,100.00
3991.00,100.00
3990.00,100.00
3989.00,100.00
3988.00,100.00
3987.00,100.00
3986.00,100.00
3985.00,100.00
3984.00,100.00
3983.00,100.00
3982.00,100.00
3981.00,100.00
3980.00,99.99
3979.00,99.99
3978.00,99.98
3977.00,99.98
3976.00,99.98
3975.00,99.98
3974.00,99.98
3973.00,99.98
3972.00,99.98
3971.00,99.97
3970.00,99.97
3969.00,99.97
3968.00,99.97
3967.00,99.97
3966.00,99.97
3965.00,99.96
3964.00,99.95
3963.00,99.95
3962.00,99.94
3961.00,99.94
3960.00,99.94
3959.00,99.94
3958.00,99.95
3957.00,99.95
3956.00,99.95
3955.00,99.95
3954.00,99.95
3953.00,99.94
3952.00,99.94
3951.00,99.94
3950.00,99.94
3949.00,99.94
3948.00,99.94
3947.00,99.93
3946.00,99.91
3945.00,99.91
3944.00,99.90
3943.00,99.90
3942.00,99.91
3941.00,99.92
3940.00,99.92
3939.00,99.93
3938.00,99.92
3937.00,99.92
3936.00,99.92
3935.00,99.91
3934.00,99.92
3933.00,99.92
3932.00,99.91
3931.00,99.91
3930.00,99.91
3929.00,99.90
3928.00,99.89
3927.00,99.89
3926.00,99.89
3925.00,99.89
3924.00,99.89
3923.00,99.89
3922.00,99.89
3921.00,99.88
3920.00,99.88
3919.00,99.88
3918.00,99.89
3917.00,99.89
3916.00,99.89
3915.00,99.90
3914.00,99.90
3913.00,99.91
3912.00,99.91
3911.00,99.92
3910.00,99.92
3909.00,99.91
3908.00,99.89
3907.00,99.87
3906.00,99.85
3905.00,99.83
3904.00,99.81
3903.00,99.79
3902.00,99.78
3901.00,99.78
3900.00,99.78
3899.00,99.79
3898.00,99.80
3897.00,99.82
3896.00,99.83
3895.00,99.84
3894.00,99.84
3893.00,99.85
3892.00,99.86
3891.00,99.85
3890.00,99.84
3889.00,99.83
3888.00,99.83
3887.00,99.82
3886.00,99.81
3885.00,99.80
3884.00,99.79
3883.00,99.79
3882.00,99.80
3881.00,99.80
3880.00,99.80
3879.00,99.81
3878.00,99.82
3877.00,99.83
3876.00,99.82
3875.00,99.81
3874.00,99.80
3873.00,99.80
3872.00,99.80
3871.00,99.80
3870.00,99.79
3869.00,99.77
3868.00,99.77
3867.00,99.77
3866.00,99.77
3865.00,99.77
3864.00,99.78
3863.00,99.79
3862.00,99.81
3861.00,99.82
3860.00,99.82
3859.00,99.81
3858.00,99.79
3857.00,99.77
3856.00,99.75
3855.00,99.74
3854.00,99.73
3853.00,99.71
3852.00,99.69
3851.00,99.70
3850.00,99.72
3849.00,99.75
3848.00,99.78
3847.00,99.81
3846.00,99.83
3845.00,99.84
3844.00,99.85
3843.00,99.84
3842.00,99.83
3841.00,99.81
3840.00,99.79
3839.00,99.78
3838.00,99.76
3837.00,99.75
3836.00,99.75
3835.00,99.76
3834.00,99.77
3833.00,99.79
3832.00,99.81
3831.00,99.83
3830.00,99.84
3829.00,99.85
3828.00,99.86
3827.00,99.86
3826.00,99.86
3825.00,99.85
3824.00,99.84
3823.00,99.83
3822.00,99.82
3821.00,99.80
3820.00,99.79
3819.00,99.78
3818.00,99.79
3817.00,99.79
3816.00,99.79
3815.00,99.80
3814.00,99.82
3813.00,99.84
3812.00,99.86
3811.00,99.86
3810.00,99.87
3809.00,99.88
3808.00,99.88
3807.00,99.87
3806.00,99.86
3805.00,99.84
3804.00,99.84
3803.00,99.83
3802.00,99.82
3801.00,99.80
3800.00,99.80
3799.00,99.82
3798.00,99.83
3797.00,99.84
3796.00,99.86
3795.00,99.88
3794.00,99.90
3793.00,99.91
3792.00,99.92
3791.00,99.93
3790.00,99.94
3789.00,99.95
3788.00,99.96
3787.00,99.96
3786.00,99.96
3785.00,99.95
3784.00,99.95
3783.00,99.94
3782.00,99.94
3781.00,99.94
3780.00,99.94
3779.00,99.94
3778.00,99.94
3777.00,99.95
3776.00,99.95
3775.00,99.95
3774.00,99.94
3773.00,99.94
3772.00,99.93
3771.00,99.93
3770.00,99.92
3769.00,99.91
3768.00,99.91
3767.00,99.91
3766.00,99.91
3765.00,99.91
3764.00,99.91
3763.00,99.92
3762.00,99.92
3761.00,99.91
3760.00,99.91
3759.00,99.91
3758.00,99.90
3757.00,99.89
3756.00,99.88
3755.00,99.87
3754.00,99.85
3753.00,99.83
3752.00,99.82
3751.00,99.80
3750.00,99.78
3749.00,99.75
3748.00,99.73
3747.00,99.72
3746.00,99.73
3745.00,99.73
3744.00,99.74
3743.00,99.76
3742.00,99.79
3741.00,99.82
3740.00,99.83
3739.00,99.84
3738.00,99.84
3737.00,99.84
3736.00,99.84
3735.00,99.84
3734.00,99.85
3733.00,99.86
3732.00,99.86
3731.00,99.87
3730.00,99.89
3729.00,99.91
3728.00,99.93
3727.00,99.94
3726.00,99.95
3725.00,99.96
3724.00,99.96
3723.00,99.97
3722.00,99.97
3721.00,99.97
3720.00,99.98
3719.00,99.99
3718.00,99.99
3717.00,99.99
3716.00,99.98
3715.00,99.97
3714.00,99.96
3713.00,99.95
3712.00,99.94
3711.00,99.93
3710.00,99.92
3709.00,99.93
3708.00,99.94
3707.00,99.95
3706.00,99.97
3705.00,99.98
3704.00,99.99
3703.00,100.00
3702.00,100.01
3701.00,100.01
3700.00,100.02
3699.00,100.02
3698.00,100.03
3697.00,100.03
3696.00,100.02
3695.00,100.01
3694.00,100.00
3693.00,99.98
3692.00,99.97
3691.00,99.96
3690.00,99.96
3689.00,99.94
3688.00,99.92
3687.00,99.90
3686.00,99.90
3685.00,99.91
3684.00,99.93
3683.00,99.94
3682.00,99.95
3681.00,99.95
3680.00,99.93
3679.00,99.91
3678.00,99.88
3677.00,99.87
3676.00,99.84
3675.00,99.80
3674.00,99.77
3673.00,99.75
3672.00,99.75
3671.00,99.75
3670.00,99.77
3669.00,99.79
3668.00,99.82
3667.00,99.85
3666.00,99.88
3665.00,99.90
3664.00,99.92
3663.00,99.93
3662.00,99.94
3661.00,99.93
3660.00,99.92
3659.00,99.91
3658.00,99.90
3657.00,99.88
3656.00,99.86
3655.00,99.83
3654.00,99.81
3653.00,99.79
3652.00,99.76
3651.00,99.74
3650.00,99.73
3649.00,99.71
3648.00,99.69
3647.00,99.68
3646.00,99.69
3645.00,99.72
3644.00,99.75
3643.00,99.78
3642.00,99.80
3641.00,99.82
3640.00,99.83
3639.00,99.83
3638.00,99.82
3637.00,99.82
3636.00,99.81
3635.00,99.80
3634.00,99.79
3633.00,99.77
3632.00,99.75
3631.00,99.73
3630.00,99.71
3629.00,99.69
3628.00,99.67
3627.00,99.66
3626.00,99.66
3625.00,99.67
3624.00,99.67
3623.00,99.67
3622.00,99.67
3621.00,99.67
3620.00,99.66
3619.00,99.65
3618.00,99.64
3617.00,99.62
3616.00,99.60
3615.00,99.59
3614.00,99.58
3613.00,99.57
3612.00,99.56
3611.00,99.55
3610.00,99.55
3609.00,99.54
3608.00,99.54
3607.00,99.54
3606.00,99.54
3605.00,99.55
3604.00,99.55
3603.00,99.56
3602.00,99.57
3601.00,99.57
3600.00,99.57
3599.00,99.55
3598.00,99.54
3597.00,99.52
3596.00,99.51
3595.00,99.50
3594.00,99.50
3593.00,99.49
3592.00,99.48
3591.00,99.46
3590.00,99.45
3589.00,99.44
3588.00,99.43
3587.00,99.41
3586.00,99.40
3585.00,99.38
3584.00,99.38
3583.00,99.38
3582.00,99.39
3581.00,99.40
3580.00,99.42
3579.00,99.42
3578.00,99.42
3577.00,99.41
3576.00,99.39
3575.00,99.38
3574.00,99.36
3573.00,99.35
3572.00,99.33
3571.00,99.32
3570.00,99.31
3569.00,99.29
3568.00,99.28
3567.00,99.26
3566.00,99.24
3565.00,99.22
3564.00,99.21
3563.00,99.21
3562.00,99.22
3561.00,99.22
3560.00,99.23
3559.00,99.23
3558.00,99.23
3557.00,99.23
3556.00,99.23
3555.00,99.22
3554.00,99.22
3553.00,99.21
3552.00,99.20
3551.00,99.19
3550.00,99.18
3549.00,99.18
3548.00,99.17
3547.00,99.16
3546.00,99.15
3545.00,99.14
3544.00,99.13
3543.00,99.12
3542.00,99.12
3541.00,99.12
3540.00,99.12
3539.00,99.13
3538.00,99.13
3537.00,99.13
3536.00,99.12
3535.00,99.11
3534.00,99.10
3533.00,99.09
3532.00,99.09
3531.00,99.08
3530.00,99.08
3529.00,99.07
3528.00,99.06
3527.00,99.06
3526.00,99.05
3525.00,99.04
3524.00,99.04
3523.00,99.04
3522.00,99.04
3521.00,99.04
3520.00,99.04
3519.00,99.04
3518.00,99.04
3517.00,99.04
3516.00,99.04
3515.00,99.03
3514.00,99.02
3513.00,99.02
3512.00,99.01
3511.00,99.01
3510.00,99.00
3509.00,99.00
3508.00,98.99
3507.00,98.98
3506.00,98.97
3505.00,98.97
3504.00,98.96
3503.00,98.96
3502.00,98.95
3501.00,98.94
3500.00,98.94
3499.00,98.94
3498.00,98.94
3497.00,98.94
3496.00,98.94
3495.00,98.93
3494.00,98.93
3493.00,98.92
3492.00,98.91
3491.00,98.91
3490.00,98.91
3489.00,98.90
3488.00,98.90
3487.00,98.88
3486.00,98.87
3485.00,98.87
3484.00,98.86
3483.00,98.86
3482.00,98.86
3481.00,98.85
3480.00,98.85
3479.00,98.84
3478.00,98.84
3477.00,98.83
3476.00,98.83
3475.00,98.82
3474.00,98.82
3473.00,98.81
3472.00,98.81
3471.00,98.81
3470.00,98.80
3469.00,98.80
3468.00,98.80
3467.00,98.79
3466.00,98.78
3465.00,98.77
3464.00,98.77
3463.00,98.76
3462.00,98.75
3461.00,98.74
3460.00,98.73
3459.00,98.72
3458.00,98.72
3457.00,98.71
3456.00,98.71
3455.00,98.70
3454.00,98.69
3453.00,98.69
3452.00,98.68
3451.00,98.67
3450.00,98.67
3449.00,98.66
3448.00,98.65
3447.00,98.64
3446.00,98.63
3445.00,98.63
3444.00,98.62
3443.00,98.62
3442.00,98.61
3441.00,98.60
3440.00,98.60
3439.00,98.60
3438.00,98.59
3437.00,98.59
3436.00,98.58
3435.00,98.58
3434.00,98.58
3433.00,98.57
3432.00,98.56
3431.00,98.55
3430.00,98.54
3429.00,98.53
3428.00,98.53
3427.00,98.52
3426.00,98.52
3425.00,98.51
3424.00,98.50
3423.00,98.50
3422.00,98.49
3421.00,98.48
3420.00,98.48
3419.00,98.47
3418.00,98.47
3417.00,98.47
3416.00,98.46
3415.00,98.46
3414.00,98.45
3413.00,98.45
3412.00,98.45
3411.00,98.45
3410.00,98.45
3409.00,98.44
3408.00,98.44
3407.00,98.43
3406.00,98.42
3405.00,98.41
3404.00,98.41
3403.00,98.40
3402.00,98.40
3401.00,98.40
3400.00,98.40
3399.00,98.40
3398.00,98.40
3397.00,98.39
3396.00,98.38
3395.00,98.38
3394.00,98.37
3393.00,98.37
3392.00,98.36
3391.00,98.36
3390.00,98.35
3389.00,98.35
3388.00,98.35
3387.00,98.35
3386.00,98.35
3385.00,98.34
3384.00,98.34
3383.00,98.34
3382.00,98.34
3381.00,98.34
3380.00,98.34
3379.00,98.34
3378.00,98.33
3377.00,98.33
3376.00,98.32
3375.00,98.32
3374.00,98.32
3373.00,98.31
3372.00,98.31
3371.00,98.31
3370.00,98.30
3369.00,98.30
3368.00,98.30
3367.00,98.30
3366.00,98.29
3365.00,98.29
3364.00,98.28
3363.00,98.28
3362.00,98.28
3361.00,98.28
3360.00,98.28
3359.00,98.28
3358.00,98.28
3357.00,98.27
3356.00,98.27
3355.00,98.27
3354.00,98.26
3353.00,98.26
3352.00,98.26
3351.00,98.26
3350.00,98.25
3349.00,98.25
3348.00,98.24
3347.00,98.24
3346.00,98.23
3345.00,98.23
3344.00,98.22
3343.00,98.22
3342.00,98.22
3341.00,98.22
3340.00,98.22
3339.00,98.22
3338.00,98.22
3337.00,98.22
3336.00,98.22
3335.00,98.22
3334.00,98.22
3333.00,98.22
3332.00,98.22
3331.00,98.22
3330.00,98.21
3329.00,98.21
3328.00,98.21
3327.00,98.20
3326.00,98.20
3325.00,98.20
3324.00,98.20
3323.00,98.20
3322.00,98.21
3321.00,98.21
3320.00,98.21
3319.00,98.21
3318.00,98.21
3317.00,98.20
3316.00,98.19
3315.00,98.18
3314.00,98.17
3313.00,98.17
3312.00,98.16
3311.00,98.16
3310.00,98.15
3309.00,98.15
3308.00,98.14
3307.00,98.13
3306.00,98.12
3305.00,98.12
3304.00,98.12
3303.00,98.12
3302.00,98.12
3301.00,98.12
3300.00,98.12
3299.00,98.12
3298.00,98.12
3297.00,98.12
3296.00,98.12
3295.00,98.13
3294.00,98.14
3293.00,98.15
3292.00,98.15
3291.00,98.16
3290.00,98.17
3289.00,98.18
3288.00,98.19
3287.00,98.19
3286.00,98.20
3285.00,98.20
3284.00,98.21
3283.00,98.22
3282.00,98.23
3281.00,98.25
3280.00,98.26
3279.00,98.27
3278.00,98.27
3277.00,98.28
3276.00,98.28
3275.00,98.29
3274.00,98.29
3273.00,98.30
3272.00,98.30
3271.00,98.31
3270.00,98.31
3269.00,98.32
3268.00,98.33
3267.00,98.33
3266.00,98.34
3265.00,98.35
3264.00,98.35
3263.00,98.36
3262.00,98.36
3261.00,98.36
3260.00,98.37
3259.00,98.37
3258.00,98.38
3257.00,98.39
3256.00,98.41
3255.00,98.41
3254.00,98.42
3253.00,98.43
3252.00,98.43
3251.00,98.44
3250.00,98.45
3249.00,98.46
3248.00,98.47
3247.00,98.48
3246.00,98.49
3245.00,98.49
3244.00,98.50
3243.00,98.50
3242.00,98.50
3241.00,98.51
3240.00,98.52
3239.00,98.53
3238.00,98.54
3237.00,98.54
3236.00,98.55
3235.00,98.56
3234.00,98.57
3233.00,98.57
3232.00,98.58
3231.00,98.59
3230.00,98.60
3229.00,98.61
3228.00,98.62
3227.00,98.63
3226.00,98.64
3225.00,98.65
3224.00,98.66
3223.00,98.66
3222.00,98.67
3221.00,98.68
3220.00,98.69
3219.00,98.70
3218.00,98.71
3217.00,98.72
3216.00,98.73
3215.00,98.73
3214.00,98.74
3213.00,98.75
3212.00,98.75
3211.00,98.76
3210.00,98.77
3209.00,98.78
3208.00,98.79
3207.00,98.80
3206.00,98.81
3205.00,98.82
3204.00,98.83
3203.00,98.84
3202.00,98.85
3201.00,98.86
3200.00,98.88
3199.00,98.89
3198.00,98.90
3197.00,98.91
3196.00,98.92
3195.00,98.93
3194.00,98.94
3193.00,98.95
3192.00,98.96
3191.00,98.98
3190.00,98.99
3189.00,99.00
3188.00,99.01
3187.00,99.02
3186.00,99.03
3185.00,99.04
3184.00,99.06
3183.00,99.07
3182.00,99.08
3181.00,99.09
3180.00,99.11
3179.00,99.12
3178.00,99.13
3177.00,99.14
3176.00,99.15
3175.00,99.16
3174.00,99.18
3173.00,99.19
3172.00,99.20
3171.00,99.22
3170.00,99.23
3169.00,99.24
3168.00,99.25
3167.00,99.26
3166.00,99.27
3165.00,99.28
3164.00,99.30
3163.00,99.31
3162.00,99.32
3161.00,99.34
3160.00,99.35
3159.00,99.36
3158.00,99.37
3157.00,99.38
3156.00,99.39
3155.00,99.41
3154.00,99.42
3153.00,99.43
3152.00,99.45
3151.00,99.46
3150.00,99.47
3149.00,99.48
3148.00,99.49
3147.00,99.50
3146.00,99.52
3145.00,99.53
3144.00,99.54
3143.00,99.55
3142.00,99.56
3141.00,99.57
3140.00,99.58
3139.00,99.59
3138.00,99.60
3137.00,99.61
3136.00,99.63
3135.00,99.64
3134.00,99.65
3133.00,99.66
3132.00,99.67
3131.00,99.68
3130.00,99.69
3129.00,99.70
3128.00,99.71
3127.00,99.71
3126.00,99.72
3125.00,99.73
3124.00,99.74
3123.00,99.75
3122.00,99.76
3121.00,99.76
3120.00,99.77
3119.00,99.78
3118.00,99.78
3117.00,99.79
3116.00,99.80
3115.00,99.80
3114.00,99.81
3113.00,99.81
3112.00,99.82
3111.00,99.82
3110.00,99.83
3109.00,99.83
3108.00,99.84
3107.00,99.84
3106.00,99.85
3105.00,99.86
3104.00,99.86
3103.00,99.87
3102.00,99.88
3101.00,99.89
3100.00,99.90
3099.00,99.91
3098.00,99.91
3097.00,99.92
3096.00,99.93
3095.00,99.94
3094.00,99.95
3093.00,99.96
3092.00,99.96
3091.00,99.97
3090.00,99.97
3089.00,99.98
3088.00,99.98
3087.00,99.99
3086.00,99.99
3085.00,99.99
3084.00,99.99
3083.00,99.99
3082.00,100.00
3081.00,100.00
3080.00,100.00
3079.00,100.00
3078.00,100.00
3077.00,100.00
3076.00,100.00
3075.00,99.99
3074.00,99.98
3073.00,99.97
3072.00,99.96
3071.00,99.94
3070.00,99.92
3069.00,99.90
3068.00,99.87
3067.00,99.84
3066.00,99.80
3065.00,99.76
3064.00,99.71
3063.00,99.67
3062.00,99.63
3061.00,99.58
3060.00,99.54
3059.00,99.50
3058.00,99.46
3057.00,99.43
3056.00,99.40
3055.00,99.37
3054.00,99.35
3053.00,99.34
3052.00,99.33
3051.00,99.33
3050.00,99.33
3049.00,99.34
3048.00,99.34
3047.00,99.34
3046.00,99.35
3045.00,99.34
3044.00,99.34
3043.00,99.33
3042.00,99.32
3041.00,99.31
3040.00,99.29
3039.00,99.27
3038.00,99.23
3037.00,99.19
3036.00,99.15
3035.00,99.09
3034.00,99.03
3033.00,98.97
3032.00,98.90
3031.00,98.83
3030.00,98.76
3029.00,98.70
3028.00,98.65
3027.00,98.62
3026.00,98.61
3025.00,98.63
3024.00,98.66
3023.00,98.72
3022.00,98.79
3021.00,98.87
3020.00,98.96
3019.00,99.03
3018.00,99.10
3017.00,99.14
3016.00,99.18
3015.00,99.20
3014.00,99.22
3013.00,99.22
3012.00,99.22
3011.00,99.22
3010.00,99.21
3009.00,99.21
3008.00,99.20
3007.00,99.20
3006.00,99.20
3005.00,99.19
3004.00,99.19
3003.00,99.19
3002.00,99.18
3001.00,99.18
3000.00,99.19
2999.00,99.20
2998.00,99.21
2997.00,99.23
2996.00,99.25
2995.00,99.27
2994.00,99.30
2993.00,99.32
2992.00,99.34
2991.00,99.36
2990.00,99.37
2989.00,99.39
2988.00,99.40
2987.00,99.40
2986.00,99.40
2985.00,99.38
2984.00,99.36
2983.00,99.32
2982.00,99.29
2981.00,99.25
2980.00,99.20
2979.00,99.16
2978.00,99.12
2977.00,99.06
2976.00,98.99
2975.00,98.91
2974.00,98.81
2973.00,98.69
2972.00,98.55
2971.00,98.39
2970.00,98.22
2969.00,98.02
2968.00,97.81
2967.00,97.57
2966.00,97.32
2965.00,97.05
2964.00,96.78
2963.00,96.49
2962.00,96.20
2961.00,95.91
2960.00,95.62
2959.00,95.35
2958.00,95.10
2957.00,94.87
2956.00,94.68
2955.00,94.51
2954.00,94.40
2953.00,94.32
2952.00,94.30
2951.00,94.32
2950.00,94.38
2949.00,94.47
2948.00,94.58
2947.00,94.68
2946.00,94.77
2945.00,94.83
2944.00,94.85
2943.00,94.82
2942.00,94.74
2941.00,94.60
2940.00,94.42
2939.00,94.18
2938.00,93.91
2937.00,93.60
2936.00,93.26
2935.00,92.90
2934.00,92.53
2933.00,92.16
2932.00,91.80
2931.00,91.45
2930.00,91.13
2929.00,90.83
2928.00,90.57
2927.00,90.34
2926.00,90.16
2925.00,90.03
2924.00,89.93
2923.00,89.88
2922.00,89.86
2921.00,89.87
2920.00,89.91
2919.00,89.97
2918.00,90.05
2917.00,90.16
2916.00,90.28
2915.00,90.42
2914.00,90.59
2913.00,90.77
2912.00,90.96
2911.00,91.17
2910.00,91.39
2909.00,91.62
2908.00,91.86
2907.00,92.09
2906.00,92.31
2905.00,92.53
2904.00,92.74
2903.00,92.94
2902.00,93.12
2901.00,93.30
2900.00,93.47
2899.00,93.63
2898.00,93.79
2897.00,93.94
2896.00,94.09
2895.00,94.23
2894.00,94.37
2893.00,94.51
2892.00,94.64
2891.00,94.78
2890.00,94.91
2889.00,95.04
2888.00,95.16
2887.00,95.28
2886.00,95.39
2885.00,95.49
2884.00,95.58
2883.00,95.65
2882.00,95.71
2881.00,95.75
2880.00,95.76
2879.00,95.74
2878.00,95.69
2877.00,95.60
2876.00,95.48
2875.00,95.33
2874.00,95.14
2873.00,94.94
2872.00,94.73
2871.00,94.53
2870.00,94.36
2869.00,94.23
2868.00,94.14
2867.00,94.07
2866.00,94.03
2865.00,93.99
2864.00,93.92
2863.00,93.83
2862.00,93.71
2861.00,93.56
2860.00,93.38
2859.00,93.20
2858.00,93.02
2857.00,92.86
2856.00,92.73
2855.00,92.64
2854.00,92.58
2853.00,92.57
2852.00,92.59
2851.00,92.65
2850.00,92.74
2849.00,92.88
2848.00,93.05
2847.00,93.26
2846.00,93.51
2845.00,93.78
2844.00,94.08
2843.00,94.39
2842.00,94.70
2841.00,95.01
2840.00,95.30
2839.00,95.58
2838.00,95.83
2837.00,96.05
2836.00,96.26
2835.00,96.44
2834.00,96.60
2833.00,96.74
2832.00,96.86
2831.00,96.97
2830.00,97.07
2829.00,97.16
2828.00,97.25
2827.00,97.33
2826.00,97.40
2825.00,97.47
2824.00,97.54
2823.00,97.61
2822.00,97.67
2821.00,97.72
2820.00,97.78
2819.00,97.83
2818.00,97.88
2817.00,97.93
2816.00,97.98
2815.00,98.03
2814.00,98.07
2813.00,98.11
2812.00,98.15
2811.00,98.19
2810.00,98.22
2809.00,98.26
2808.00,98.29
2807.00,98.32
2806.00,98.35
2805.00,98.39
2804.00,98.42
2803.00,98.45
2802.00,98.48
2801.00,98.51
2800.00,98.53
2799.00,98.56
2798.00,98.58
2797.00,98.61
2796.00,98.63
2795.00,98.66
2794.00,98.69
2793.00,98.71
2792.00,98.73
2791.00,98.75
2790.00,98.77
2789.00,98.79
2788.00,98.81
2787.00,98.83
2786.00,98.85
2785.00,98.87
2784.00,98.88
2783.00,98.91
2782.00,98.92
2781.00,98.94
2780.00,98.96
2779.00,98.97
2778.00,98.99
2777.00,99.00
2776.00,99.02
2775.00,99.04
2774.00,99.05
2773.00,99.06
2772.00,99.07
2771.00,99.09
2770.00,99.10
2769.00,99.12
2768.00,99.13
2767.00,99.14
2766.00,99.15
2765.00,99.16
2764.00,99.17
2763.00,99.18
2762.00,99.19
2761.00,99.20
2760.00,99.21
2759.00,99.22
2758.00,99.23
2757.00,99.24
2756.00,99.25
2755.00,99.26
2754.00,99.27
2753.00,99.27
2752.00,99.28
2751.00,99.28
2750.00,99.28
2749.00,99.29
2748.00,99.29
2747.00,99.29
2746.00,99.30
2745.00,99.30
2744.00,99.30
2743.00,99.30
2742.00,99.30
2741.00,99.30
2740.00,99.31
2739.00,99.31
2738.00,99.31
2737.00,99.32
2736.00,99.32
2735.00,99.32
2734.00,99.32
2733.00,99.32
2732.00,99.32
2731.00,99.33
2730.00,99.33
2729.00,99.33
2728.00,99.34
2727.00,99.34
2726.00,99.35
2725.00,99.35
2724.00,99.36
2723.00,99.37
2722.00,99.37
2721.00,99.38
2720.00,99.39
2719.00,99.40
2718.00,99.41
2717.00,99.42
2716.00,99.42
2715.00,99.43
2714.00,99.44
2713.00,99.45
2712.00,99.46
2711.00,99.47
2710.00,99.48
2709.00,99.49
2708.00,99.50
2707.00,99.51
2706.00,99.52
2705.00,99.52
2704.00,99.53
2703.00,99.54
2702.00,99.55
2701.00,99.56
2700.00,99.57
2699.00,99.58
2698.00,99.59
2697.00,99.59
2696.00,99.60
2695.00,99.61
2694.00,99.61
2693.00,99.61
2692.00,99.62
2691.00,99.62
2690.00,99.63
2689.00,99.63
2688.00,99.63
2687.00,99.63
2686.00,99.63
2685.00,99.63
2684.00,99.63
2683.00,99.63
2682.00,99.63
2681.00,99.64
2680.00,99.64
2679.00,99.64
2678.00,99.64
2677.00,99.64
2676.00,99.65
2675.00,99.65
2674.00,99.66
2673.00,99.66
2672.00,99.67
2671.00,99.67
2670.00,99.67
2669.00,99.67
2668.00,99.67
2667.00,99.66
2666.00,99.66
2665.00,99.65
2664.00,99.65
2663.00,99.65
2662.00,99.64
2661.00,99.64
2660.00,99.64
2659.00,99.64
2658.00,99.64
2657.00,99.64
2656.00,99.65
2655.00,99.66
2654.00,99.66
2653.00,99.67
2652.00,99.67
2651.00,99.67
2650.00,99.68
2649.00,99.68
2648.00,99.69
2647.00,99.70
2646.00,99.70
2645.00,99.70
2644.00,99.71
2643.00,99.71
2642.00,99.71
2641.00,99.72
2640.00,99.72
2639.00,99.72
2638.00,99.73
2637.00,99.73
2636.00,99.74
2635.00,99.74
2634.00,99.75
2633.00,99.75
2632.00,99.75
2631.00,99.75
2630.00,99.76
2629.00,99.76
2628.00,99.76
2627.00,99.76
2626.00,99.77
2625.00,99.78
2624.00,99.78
2623.00,99.79
2622.00,99.79
2621.00,99.79
2620.00,99.79
2619.00,99.80
2618.00,99.80
2617.00,99.80
2616.00,99.81
2615.00,99.81
2614.00,99.82
2613.00,99.82
2612.00,99.83
2611.00,99.84
2610.00,99.84
2609.00,99.85
2608.00,99.85
2607.00,99.85
2606.00,99.85
2605.00,99.85
2604.00,99.85
2603.00,99.85
2602.00,99.86
2601.00,99.87
2600.00,99.87
2599.00,99.88
2598.00,99.89
2597.00,99.90
2596.00,99.90
2595.00,99.90
2594.00,99.90
2593.00,99.90
2592.00,99.90
2591.00,99.90
2590.00,99.90
2589.00,99.91
2588.00,99.91
2587.00,99.92
2586.00,99.93
2585.00,99.93
2584.00,99.93
2583.00,99.92
2582.00,99.92
2581.00,99.92
2580.00,99.92
2579.00,99.92
2578.00,99.93
2577.00,99.94
2576.00,99.95
2575.00,99.95
2574.00,99.95
2573.00,99.96
2572.00,99.96
2571.00,99.95
2570.00,99.95
2569.00,99.95
2568.00,99.95
2567.00,99.95
2566.00,99.95
2565.00,99.95
2564.00,99.95
2563.00,99.95
2562.00,99.95
2561.00,99.95
2560.00,99.95
2559.00,99.96
2558.00,99.96
2557.00,99.97
2556.00,99.97
2555.00,99.97
2554.00,99.97
2553.00,99.97
2552.00,99.97
2551.00,99.97
2550.00,99.97
2549.00,99.97
2548.00,99.98
2547.00,99.98
2546.00,99.99
2545.00,99.99
2544.00,99.99
2543.00,99.99
2542.00,99.99
2541.00,100.00
2540.00,100.00
2539.00,100.00
2538.00,100.00
2537.00,100.00
2536.00,100.00
2535.00,100.00
2534.00,100.00
2533.00,100.00
2532.00,99.99
2531.00,99.99
2530.00,100.00
2529.00,100.00
2528.00,100.00
2527.00,100.00
2526.00,100.00
2525.00,100.00
2524.00,100.00
2523.00,100.00
2522.00,100.01
2521.00,100.00
2520.00,100.00
2519.00,100.00
2518.00,100.00
2517.00,100.00
2516.00,100.00
2515.00,100.00
2514.00,100.00
2513.00,100.00
2512.00,100.00
2511.00,100.00
2510.00,100.00
2509.00,100.01
2508.00,100.01
2507.00,100.01
2506.00,100.01
2505.00,100.00
2504.00,100.00
2503.00,100.00
2502.00,100.00
2501.00,100.00
2500.00,100.01
2499.00,100.01
2498.00,100.00
2497.00,100.00
2496.00,100.00
2495.00,99.99
2494.00,99.99
2493.00,99.99
2492.00,99.99
2491.00,99.99
2490.00,99.99
2489.00,99.99
2488.00,99.99
2487.00,99.99
2486.00,99.98
2485.00,99.98
2484.00,99.98
2483.00,99.98
2482.00,99.98
2481.00,99.98
2480.00,99.98
2479.00,99.98
2478.00,99.97
2477.00,99.97
2476.00,99.96
2475.00,99.96
2474.00,99.95
2473.00,99.95
2472.00,99.94
2471.00,99.94
2470.00,99.94
2469.00,99.94
2468.00,99.93
2467.00,99.92
2466.00,99.92
2465.00,99.91
2464.00,99.91
2463.00,99.91
2462.00,99.91
2461.00,99.90
2460.00,99.90
2459.00,99.89
2458.00,99.89
2457.00,99.89
2456.00,99.89
2455.00,99.88
2454.00,99.88
2453.00,99.88
2452.00,99.88
2451.00,99.88
2450.00,99.88
2449.00,99.88
2448.00,99.88
2447.00,99.88
2446.00,99.88
2445.00,99.88
2444.00,99.88
2443.00,99.88
2442.00,99.89
2441.00,99.90
2440.00,99.90
2439.00,99.90
2438.00,99.90
2437.00,99.89
2436.00,99.89
2435.00,99.88
2434.00,99.88
2433.00,99.89
2432.00,99.89
2431.00,99.88
2430.00,99.88
2429.00,99.88
2428.00,99.88
2427.00,99.88
2426.00,99.87
2425.00,99.87
2424.00,99.87
2423.00,99.87
2422.00,99.87
2421.00,99.87
2420.00,99.87
2419.00,99.86
2418.00,99.86
2417.00,99.85
2416.00,99.85
2415.00,99.85
2414.00,99.85
2413.00,99.85
2412.00,99.85
2411.00,99.84
2410.00,99.84
2409.00,99.83
2408.00,99.83
2407.00,99.84
2406.00,99.84
2405.00,99.84
2404.00,99.84
2403.00,99.83
2402.00,99.83
2401.00,99.83
2400.00,99.82
2399.00,99.82
2398.00,99.82
2397.00,99.81
2396.00,99.81
2395.00,99.80
2394.00,99.80
2393.00,99.80
2392.00,99.80
2391.00,99.80
2390.00,99.79
2389.00,99.79
2388.00,99.79
2387.00,99.79
2386.00,99.79
2385.00,99.79
2384.00,99.79
2383.00,99.80
2382.00,99.80
2381.00,99.80
2380.00,99.80
2379.00,99.80
2378.00,99.80
2377.00,99.80
2376.00,99.79
2375.00,99.79
2374.00,99.78
2373.00,99.78
2372.00,99.78
2371.00,99.78
2370.00,99.78
2369.00,99.78
2368.00,99.79
2367.00,99.79
2366.00,99.78
2365.00,99.78
2364.00,99.77
2363.00,99.76
2362.00,99.75
2361.00,99.74
2360.00,99.73
2359.00,99.73
2358.00,99.73
2357.00,99.73
2356.00,99.72
2355.00,99.72
2354.00,99.71
2353.00,99.70
2352.00,99.71
2351.00,99.71
2350.00,99.71
2349.00,99.70
2348.00,99.68
2347.00,99.66
2346.00,99.65
2345.00,99.65
2344.00,99.65
2343.00,99.66
2342.00,99.65
2341.00,99.64
2340.00,99.63
2339.00,99.62
2338.00,99.62
2337.00,99.61
2336.00,99.61
2335.00,99.60
2334.00,99.60
2333.00,99.59
2332.00,99.59
2331.00,99.59
2330.00,99.59
2329.00,99.59
2328.00,99.57
2327.00,99.53
2326.00,99.49
2325.00,99.45
2324.00,99.43
2323.00,99.44
2322.00,99.45
2321.00,99.48
2320.00,99.49
2319.00,99.50
2318.00,99.51
2317.00,99.51
2316.00,99.51
2315.00,99.51
2314.00,99.52
2313.00,99.53
2312.00,99.55
2311.00,99.56
2310.00,99.57
2309.00,99.57
2308.00,99.57
2307.00,99.57
2306.00,99.56
2305.00,99.55
2304.00,99.54
2303.00,99.54
2302.00,99.54
2301.00,99.54
2300.00,99.53
2299.00,99.53
2298.00,99.52
2297.00,99.51
2296.00,99.50
2295.00,99.49
2294.00,99.48
2293.00,99.47
2292.00,99.46
2291.00,99.45
2290.00,99.44
2289.00,99.43
2288.00,99.42
2287.00,99.41
2286.00,99.40
2285.00,99.40
2284.00,99.40
2283.00,99.41
2282.00,99.42
2281.00,99.43
2280.00,99.43
2279.00,99.44
2278.00,99.44
2277.00,99.43
2276.00,99.43
2275.00,99.43
2274.00,99.43
2273.00,99.43
2272.00,99.44
2271.00,99.45
2270.00,99.46
2269.00,99.47
2268.00,99.48
2267.00,99.49
2266.00,99.49
2265.00,99.49
2264.00,99.48
2263.00,99.48
2262.00,99.47
2261.00,99.47
2260.00,99.46
2259.00,99.46
2258.00,99.46
2257.00,99.47
2256.00,99.48
2255.00,99.50
2254.00,99.51
2253.00,99.52
2252.00,99.52
2251.00,99.51
2250.00,99.51
2249.00,99.50
2248.00,99.50
2247.00,99.49
2246.00,99.49
2245.00,99.49
2244.00,99.48
2243.00,99.48
2242.00,99.48
2241.00,99.49
2240.00,99.50
2239.00,99.50
2238.00,99.50
2237.00,99.50
2236.00,99.49
2235.00,99.49
2234.00,99.49
2233.00,99.49
2232.00,99.49
2231.00,99.49
2230.00,99.50
2229.00,99.51
2228.00,99.51
2227.00,99.51
2226.00,99.51
2225.00,99.51
2224.00,99.51
2223.00,99.51
2222.00,99.51
2221.00,99.51
2220.00,99.51
2219.00,99.52
2218.00,99.53
2217.00,99.53
2216.00,99.52
2215.00,99.51
2214.00,99.51
2213.00,99.51
2212.00,99.51
2211.00,99.53
2210.00,99.54
2209.00,99.54
2208.00,99.54
2207.00,99.53
2206.00,99.53
2205.00,99.53
2204.00,99.54
2203.00,99.54
2202.00,99.54
2201.00,99.54
2200.00,99.54
2199.00,99.54
2198.00,99.55
2197.00,99.55
2196.00,99.55
2195.00,99.54
2194.00,99.53
2193.00,99.53
2192.00,99.52
2191.00,99.51
2190.00,99.51
2189.00,99.50
2188.00,99.50
2187.00,99.51
2186.00,99.53
2185.00,99.56
2184.00,99.59
2183.00,99.61
2182.00,99.63
2181.00,99.64
2180.00,99.63
2179.00,99.62
2178.00,99.61
2177.00,99.61
2176.00,99.61
2175.00,99.62
2174.00,99.61
2173.00,99.60
2172.00,99.59
2171.00,99.59
2170.00,99.59
2169.00,99.59
2168.00,99.58
2167.00,99.57
2166.00,99.55
2165.00,99.54
2164.00,99.53
2163.00,99.52
2162.00,99.53
2161.00,99.59
2160.00,99.70
2159.00,99.86
2158.00,99.98
2157.00,100.04
2156.00,100.03
2155.00,100.00
2154.00,99.97
2153.00,99.94
2152.00,99.91
2151.00,99.88
2150.00,99.86
2149.00,99.85
2148.00,99.82
2147.00,99.80
2146.00,99.77
2145.00,99.75
2144.00,99.75
2143.00,99.75
2142.00,99.75
2141.00,99.74
2140.00,99.72
2139.00,99.70
2138.00,99.70
2137.00,99.71
2136.00,99.72
2135.00,99.74
2134.00,99.75
2133.00,99.75
2132.00,99.74
2131.00,99.72
2130.00,99.69
2129.00,99.66
2128.00,99.63
2127.00,99.60
2126.00,99.58
2125.00,99.56
2124.00,99.54
2123.00,99.54
2122.00,99.53
2121.00,99.53
2120.00,99.52
2119.00,99.51
2118.00,99.49
2117.00,99.48
2116.00,99.46
2115.00,99.44
2114.00,99.43
2113.00,99.43
2112.00,99.43
2111.00,99.44
2110.00,99.44
2109.00,99.45
2108.00,99.46
2107.00,99.46
2106.00,99.46
2105.00,99.46
2104.00,99.46
2103.00,99.46
2102.00,99.46
2101.00,99.47
2100.00,99.48
2099.00,99.49
2098.00,99.50
2097.00,99.52
2096.00,99.53
2095.00,99.55
2094.00,99.55
2093.00,99.54
2092.00,99.52
2091.00,99.51
2090.00,99.51
2089.00,99.51
2088.00,99.51
2087.00,99.51
2086.00,99.50
2085.00,99.50
2084.00,99.49
2083.00,99.49
2082.00,99.49
2081.00,99.49
2080.00,99.49
2079.00,99.49
2078.00,99.50
2077.00,99.51
2076.00,99.52
2075.00,99.53
2074.00,99.55
2073.00,99.56
2072.00,99.55
2071.00,99.55
2070.00,99.54
2069.00,99.54
2068.00,99.55
2067.00,99.57
2066.00,99.59
2065.00,99.60
2064.00,99.60
2063.00,99.60
2062.00,99.60
2061.00,99.60
2060.00,99.61
2059.00,99.61
2058.00,99.61
2057.00,99.62
2056.00,99.62
2055.00,99.63
2054.00,99.62
2053.00,99.59
2052.00,99.56
2051.00,99.53
2050.00,99.55
2049.00,99.59
2048.00,99.64
2047.00,99.69
2046.00,99.72
2045.00,99.74
2044.00,99.75
2043.00,99.76
2042.00,99.78
2041.00,99.79
2040.00,99.79
2039.00,99.78
2038.00,99.78
2037.00,99.80
2036.00,99.83
2035.00,99.86
2034.00,99.90
2033.00,99.93
2032.00,99.93
2031.00,99.94
2030.00,99.94
2029.00,99.95
2028.00,99.96
2027.00,99.97
2026.00,99.98
2025.00,99.99
2024.00,99.98
2023.00,99.98
2022.00,99.97
2021.00,99.97
2020.00,99.97
2019.00,99.98
2018.00,100.00
2017.00,100.01
2016.00,100.01
2015.00,100.00
2014.00,99.99
2013.00,99.97
2012.00,99.96
2011.00,99.94
2010.00,99.92
2009.00,99.92
2008.00,99.94
2007.00,99.97
2006.00,100.01
2005.00,100.03
2004.00,100.01
2003.00,99.98
2002.00,99.96
2001.00,99.94
2000.00,99.92
1999.00,99.92
1998.00,99.91
1997.00,99.91
1996.00,99.90
1995.00,99.89
1994.00,99.87
1993.00,99.86
1992.00,99.86
1991.00,99.87
1990.00,99.88
1989.00,99.89
1988.00,99.89
1987.00,99.88
1986.00,99.87
1985.00,99.86
1984.00,99.84
1983.00,99.83
1982.00,99.81
1981.00,99.80
1980.00,99.80
1979.00,99.84
1978.00,99.91
1977.00,99.97
1976.00,100.00
1975.00,100.01
1974.00,100.02
1973.00,100.02
1972.00,100.01
1971.00,100.01
1970.00,100.00
1969.00,99.99
1968.00,99.99
1967.00,99.99
1966.00,99.99
1965.00,99.99
1964.00,99.99
1963.00,100.00
1962.00,100.01
1961.00,100.03
1960.00,100.04
1959.00,100.03
1958.00,100.02
1957.00,99.99
1956.00,99.97
1955.00,99.95
1954.00,99.94
1953.00,99.94
1952.00,99.93
1951.00,99.93
1950.00,99.93
1949.00,99.93
1948.00,99.93
1947.00,99.93
1946.00,99.92
1945.00,99.92
1944.00,99.92
1943.00,99.92
1942.00,99.94
1941.00,99.95
1940.00,99.95
1939.00,99.95
1938.00,99.95
1937.00,99.95
1936.00,99.96
1935.00,99.96
1934.00,99.97
1933.00,99.98
1932.00,99.99
1931.00,99.99
1930.00,100.00
1929.00,100.00
1928.00,100.00
1927.00,100.01
1926.00,100.01
1925.00,100.01
1924.00,100.00
1923.00,99.99
1922.00,99.99
1921.00,99.99
1920.00,99.99
1919.00,99.99
1918.00,100.00
1917.00,99.99
1916.00,99.98
1915.00,99.96
1914.00,99.95
1913.00,99.94
1912.00,99.94
1911.00,99.94
1910.00,99.94
1909.00,99.94
1908.00,99.94
1907.00,99.94
1906.00,99.94
1905.00,99.94
1904.00,99.94
1903.00,99.95
1902.00,99.95
1901.00,99.95
1900.00,99.95
1899.00,99.95
1898.00,99.95
1897.00,99.95
1896.00,99.95
1895.00,99.95
1894.00,99.96
1893.00,99.96
1892.00,99.96
1891.00,99.96
1890.00,99.96
1889.00,99.95
1888.00,99.95
1887.00,99.95
1886.00,99.95
1885.00,99.95
1884.00,99.95
1883.00,99.95
1882.00,99.95
1881.00,99.95
1880.00,99.95
1879.00,99.94
1878.00,99.94
1877.00,99.94
1876.00,99.94
1875.00,99.94
1874.00,99.94
1873.00,99.93
1872.00,99.93
1871.00,99.93
1870.00,99.93
1869.00,99.94
1868.00,99.94
1867.00,99.94
1866.00,99.93
1865.00,99.92
1864.00,99.91
1863.00,99.90
1862.00,99.89
1861.00,99.89
1860.00,99.88
1859.00,99.87
1858.00,99.86
1857.00,99.85
1856.00,99.84
1855.00,99.84
1854.00,99.83
1853.00,99.83
1852.00,99.83
1851.00,99.83
1850.00,99.83
1849.00,99.84
1848.00,99.84
1847.00,99.84
1846.00,99.85
1845.00,99.86
1844.00,99.87
1843.00,99.88
1842.00,99.89
1841.00,99.88
1840.00,99.87
1839.00,99.87
1838.00,99.88
1837.00,99.88
1836.00,99.88
1835.00,99.87
1834.00,99.87
1833.00,99.86
1832.00,99.86
1831.00,99.86
1830.00,99.87
1829.00,99.88
1828.00,99.89
1827.00,99.89
1826.00,99.89
1825.00,99.90
1824.00,99.91
1823.00,99.91
1822.00,99.91
1821.00,99.91
1820.00,99.92
1819.00,99.93
1818.00,99.94
1817.00,99.95
1816.00,99.95
1815.00,99.94
1814.00,99.93
1813.00,99.92
1812.00,99.91
1811.00,99.90
1810.00,99.89
1809.00,99.88
1808.00,99.87
1807.00,99.86
1806.00,99.85
1805.00,99.84
1804.00,99.82
1803.00,99.81
1802.00,99.79
1801.00,99.77
1800.00,99.76
1799.00,99.74
1798.00,99.72
1797.00,99.70
1796.00,99.69
1795.00,99.67
1794.00,99.66
1793.00,99.65
1792.00,99.64
1791.00,99.64
1790.00,99.62
1789.00,99.60
1788.00,99.58
1787.00,99.56
1786.00,99.55
1785.00,99.54
1784.00,99.53
1783.00,99.53
1782.00,99.54
1781.00,99.55
1780.00,99.56
1779.00,99.58
1778.00,99.60
1777.00,99.61
1776.00,99.62
1775.00,99.64
1774.00,99.65
1773.00,99.66
1772.00,99.69
1771.00,99.71
1770.00,99.72
1769.00,99.72
1768.00,99.73
1767.00,99.75
1766.00,99.76
1765.00,99.76
1764.00,99.77
1763.00,99.77
1762.00,99.79
1761.00,99.80
1760.00,99.81
1759.00,99.82
1758.00,99.82
1757.00,99.83
1756.00,99.85
1755.00,99.85
1754.00,99.85
1753.00,99.84
1752.00,99.84
1751.00,99.84
1750.00,99.84
1749.00,99.83
1748.00,99.81
1747.00,99.78
1746.00,99.74
1745.00,99.70
1744.00,99.65
1743.00,99.59
1742.00,99.52
1741.00,99.44
1740.00,99.35
1739.00,99.25
1738.00,99.16
1737.00,99.06
1736.00,98.97
1735.00,98.86
1734.00,98.73
1733.00,98.60
1732.00,98.49
1731.00,98.39
1730.00,98.29
1729.00,98.20
1728.00,98.11
1727.00,98.04
1726.00,97.97
1725.00,97.90
1724.00,97.85
1723.00,97.81
1722.00,97.78
1721.00,97.76
1720.00,97.76
1719.00,97.77
1718.00,97.81
1717.00,97.89
1716.00,97.98
1715.00,98.09
1714.00,98.20
1713.00,98.31
1712.00,98.41
1711.00,98.50
1710.00,98.59
1709.00,98.68
1708.00,98.75
1707.00,98.81
1706.00,98.87
1705.00,98.92
1704.00,98.97
1703.00,98.99
1702.00,99.02
1701.00,99.05
1700.00,99.09
1699.00,99.11
1698.00,99.11
1697.00,99.10
1696.00,99.11
1695.00,99.14
1694.00,99.17
1693.00,99.18
1692.00,99.18
1691.00,99.18
1690.00,99.18
1689.00,99.18
1688.00,99.17
1687.00,99.16
1686.00,99.15
1685.00,99.14
1684.00,99.13
1683.00,99.11
1682.00,99.09
1681.00,99.06
1680.00,99.03
1679.00,99.01
1678.00,99.00
1677.00,98.98
1676.00,98.97
1675.00,98.95
1674.00,98.94
1673.00,98.93
1672.00,98.93
1671.00,98.92
1670.00,98.92
1669.00,98.92
1668.00,98.92
1667.00,98.92
1666.00,98.93
1665.00,98.93
1664.00,98.94
1663.00,98.94
1662.00,98.95
1661.00,98.96
1660.00,98.96
1659.00,98.97
1658.00,98.98
1657.00,98.99
1656.00,99.00
1655.00,99.00
1654.00,99.00
1653.00,99.00
1652.00,98.99
1651.00,98.99
1650.00,98.99
1649.00,98.99
1648.00,98.99
1647.00,98.98
1646.00,98.98
1645.00,98.97
1644.00,98.96
1643.00,98.95
1642.00,98.95
1641.00,98.94
1640.00,98.94
1639.00,98.93
1638.00,98.93
1637.00,98.93
1636.00,98.92
1635.00,98.93
1634.00,98.93
1633.00,98.94
1632.00,98.96
1631.00,98.99
1630.00,99.03
1629.00,99.07
1628.00,99.11
1627.00,99.15
1626.00,99.18
1625.00,99.21
1624.00,99.23
1623.00,99.25
1622.00,99.27
1621.00,99.28
1620.00,99.29
1619.00,99.29
1618.00,99.28
1617.00,99.28
1616.00,99.27
1615.00,99.27
1614.00,99.26
1613.00,99.25
1612.00,99.24
1611.00,99.22
1610.00,99.20
1609.00,99.18
1608.00,99.15
1607.00,99.13
1606.00,99.11
1605.00,99.08
1604.00,99.06
1603.00,99.04
1602.00,99.03
1601.00,99.02
1600.00,99.02
1599.00,99.03
1598.00,99.04
1597.00,99.06
1596.00,99.08
1595.00,99.11
1594.00,99.13
1593.00,99.16
1592.00,99.19
1591.00,99.21
1590.00,99.24
1589.00,99.26
1588.00,99.29
1587.00,99.31
1586.00,99.33
1585.00,99.36
1584.00,99.38
1583.00,99.39
1582.00,99.41
1581.00,99.42
1580.00,99.43
1579.00,99.43
1578.00,99.44
1577.00,99.45
1576.00,99.47
1575.00,99.49
1574.00,99.51
1573.00,99.51
1572.00,99.51
1571.00,99.51
1570.00,99.51
1569.00,99.51
1568.00,99.50
1567.00,99.49
1566.00,99.48
1565.00,99.48
1564.00,99.47
1563.00,99.46
1562.00,99.44
1561.00,99.43
1560.00,99.43
1559.00,99.44
1558.00,99.44
1557.00,99.44
1556.00,99.43
1555.00,99.43
1554.00,99.43
1553.00,99.43
1552.00,99.42
1551.00,99.41
1550.00,99.41
1549.00,99.41
1548.00,99.41
1547.00,99.41
1546.00,99.40
1545.00,99.40
1544.00,99.40
1543.00,99.40
1542.00,99.41
1541.00,99.41
1540.00,99.42
1539.00,99.45
1538.00,99.47
1537.00,99.48
1536.00,99.49
1535.00,99.50
1534.00,99.53
1533.00,99.57
1532.00,99.61
1531.00,99.64
1530.00,99.67
1529.00,99.69
1528.00,99.72
1527.00,99.75
1526.00,99.79
1525.00,99.82
1524.00,99.84
1523.00,99.86
1522.00,99.88
1521.00,99.92
1520.00,99.95
1519.00,99.97
1518.00,99.98
1517.00,99.99
1516.00,100.00
1515.00,100.01
1514.00,100.02
1513.00,100.02
1512.00,100.02
1511.00,100.02
1510.00,100.01
1509.00,100.00
1508.00,99.98
1507.00,99.96
1506.00,99.96
1505.00,99.96
1504.00,99.95
1503.00,99.93
1502.00,99.92
1501.00,99.90
1500.00,99.87
1499.00,99.83
1498.00,99.77
1497.00,99.68
1496.00,99.57
1495.00,99.45
1494.00,99.33
1493.00,99.20
1492.00,99.06
1491.00,98.91
1490.00,98.77
1489.00,98.65
1488.00,98.58
1487.00,98.58
1486.00,98.63
1485.00,98.71
1484.00,98.80
1483.00,98.91
1482.00,99.02
1481.00,99.12
1480.00,99.21
1479.00,99.28
1478.00,99.33
1477.00,99.36
1476.00,99.37
1475.00,99.36
1474.00,99.30
1473.00,99.17
1472.00,98.96
1471.00,98.69
1470.00,98.40
1469.00,98.10
1468.00,97.82
1467.00,97.57
1466.00,97.38
1465.00,97.24
1464.00,97.17
1463.00,97.16
1462.00,97.16
1461.00,97.17
1460.00,97.15
1459.00,97.12
1458.00,97.07
1457.00,97.02
1456.00,96.98
1455.00,96.99
1454.00,97.03
1453.00,97.09
1452.00,97.16
1451.00,97.24
1450.00,97.33
1449.00,97.40
1448.00,97.46
1447.00,97.51
1446.00,97.55
1445.00,97.58
1444.00,97.60
1443.00,97.62
1442.00,97.64
1441.00,97.67
1440.00,97.69
1439.00,97.72
1438.00,97.76
1437.00,97.81
1436.00,97.87
1435.00,97.93
1434.00,98.00
1433.00,98.07
1432.00,98.16
1431.00,98.26
1430.00,98.38
1429.00,98.49
1428.00,98.60
1427.00,98.70
1426.00,98.78
1425.00,98.86
1424.00,98.94
1423.00,98.99
1422.00,99.04
1421.00,99.07
1420.00,99.09
1419.00,99.10
1418.00,99.09
1417.00,99.08
1416.00,99.06
1415.00,99.03
1414.00,99.01
1413.00,98.98
1412.00,98.95
1411.00,98.92
1410.00,98.91
1409.00,98.92
1408.00,98.93
1407.00,98.95
1406.00,98.98
1405.00,99.00
1404.00,99.02
1403.00,99.03
1402.00,99.02
1401.00,99.01
1400.00,98.98
1399.00,98.94
1398.00,98.90
1397.00,98.85
1396.00,98.81
1395.00,98.76
1394.00,98.73
1393.00,98.72
1392.00,98.73
1391.00,98.75
1390.00,98.78
1389.00,98.83
1388.00,98.89
1387.00,98.96
1386.00,99.02
1385.00,99.08
1384.00,99.11
1383.00,99.12
1382.00,99.10
1381.00,99.04
1380.00,98.96
1379.00,98.86
1378.00,98.77
1377.00,98.72
1376.00,98.71
1375.00,98.75
1374.00,98.83
1373.00,98.92
1372.00,99.00
1371.00,99.03
1370.00,99.03
1369.00,99.01
1368.00,98.96
1367.00,98.92
1366.00,98.91
1365.00,98.92
1364.00,98.98
1363.00,99.06
1362.00,99.17
1361.00,99.29
1360.00,99.39
1359.00,99.47
1358.00,99.53
1357.00,99.58
1356.00,99.61
1355.00,99.63
1354.00,99.64
1353.00,99.65
1352.00,99.66
1351.00,99.67
1350.00,99.69
1349.00,99.71
1348.00,99.73
1347.00,99.75
1346.00,99.76
1345.00,99.76
1344.00,99.76
1343.00,99.76
1342.00,99.76
1341.00,99.76
1340.00,99.77
1339.00,99.78
1338.00,99.80
1337.00,99.81
1336.00,99.83
1335.00,99.85
1334.00,99.86
1333.00,99.88
1332.00,99.90
1331.00,99.92
1330.00,99.94
1329.00,99.97
1328.00,99.99
1327.00,100.02
1326.00,100.04
1325.00,100.05
1324.00,100.07
1323.00,100.08
1322.00,100.08
1321.00,100.08
1320.00,100.08
1319.00,100.07
1318.00,100.05
1317.00,100.04
1316.00,100.03
1315.00,100.02
1314.00,100.01
1313.00,100.00
1312.00,100.00
1311.00,99.99
1310.00,99.99
1309.00,100.00
1308.00,100.00
1307.00,100.00
1306.00,100.00
1305.00,100.00
1304.00,100.00
1303.00,100.00
1302.00,100.01
1301.00,100.00
1300.00,100.00
1299.00,99.99
1298.00,99.98
1297.00,99.96
1296.00,99.95
1295.00,99.93
1294.00,99.91
1293.00,99.89
1292.00,99.86
1291.00,99.84
1290.00,99.82
1289.00,99.79
1288.00,99.77
1287.00,99.74
1286.00,99.71
1285.00,99.68
1284.00,99.65
1283.00,99.61
1282.00,99.57
1281.00,99.53
1280.00,99.49
1279.00,99.45
1278.00,99.41
1277.00,99.37
1276.00,99.34
1275.00,99.31
1274.00,99.27
1273.00,99.24
1272.00,99.20
1271.00,99.16
1270.00,99.11
1269.00,99.06
1268.00,99.01
1267.00,98.95
1266.00,98.88
1265.00,98.81
1264.00,98.73
1263.00,98.66
1262.00,98.60
1261.00,98.55
1260.00,98.51
1259.00,98.48
1258.00,98.47
1257.00,98.46
1256.00,98.47
1255.00,98.47
1254.00,98.47
1253.00,98.48
1252.00,98.48
1251.00,98.48
1250.00,98.49
1249.00,98.49
1248.00,98.50
1247.00,98.52
1246.00,98.54
1245.00,98.56
1244.00,98.60
1243.00,98.63
1242.00,98.67
1241.00,98.71
1240.00,98.76
1239.00,98.79
1238.00,98.83
1237.00,98.87
1236.00,98.90
1235.00,98.93
1234.00,98.95
1233.00,98.97
1232.00,98.99
1231.00,99.00
1230.00,99.02
1229.00,99.03
1228.00,99.04
1227.00,99.05
1226.00,99.06
1225.00,99.07
1224.00,99.08
1223.00,99.09
1222.00,99.11
1221.00,99.12
1220.00,99.13
1219.00,99.14
1218.00,99.15
1217.00,99.15
1216.00,99.15
1215.00,99.14
1214.00,99.13
1213.00,99.11
1212.00,99.09
1211.00,99.07
1210.00,99.05
1209.00,99.03
1208.00,99.01
1207.00,98.98
1206.00,98.96
1205.00,98.94
1204.00,98.91
1203.00,98.89
1202.00,98.86
1201.00,98.84
1200.00,98.82
1199.00,98.80
1198.00,98.78
1197.00,98.76
1196.00,98.75
1195.00,98.74
1194.00,98.75
1193.00,98.76
1192.00,98.78
1191.00,98.80
1190.00,98.82
1189.00,98.84
1188.00,98.86
1187.00,98.87
1186.00,98.88
1185.00,98.89
1184.00,98.89
1183.00,98.89
1182.00,98.89
1181.00,98.89
1180.00,98.88
1179.00,98.88
1178.00,98.87
1177.00,98.86
1176.00,98.86
1175.00,98.85
1174.00,98.84
1173.00,98.83
1172.00,98.81
1171.00,98.80
1170.00,98.77
1169.00,98.74
1168.00,98.71
1167.00,98.68
1166.00,98.64
1165.00,98.60
1164.00,98.57
1163.00,98.54
1162.00,98.52
1161.00,98.51
1160.00,98.51
1159.00,98.50
1158.00,98.49
1157.00,98.49
1156.00,98.48
1155.00,98.48
1154.00,98.47
1153.00,98.47
1152.00,98.48
1151.00,98.48
1150.00,98.49
1149.00,98.50
1148.00,98.51
1147.00,98.52
1146.00,98.54
1145.00,98.55
1144.00,98.56
1143.00,98.56
1142.00,98.56
1141.00,98.56
1140.00,98.56
1139.00,98.55
1138.00,98.54
1137.00,98.52
1136.00,98.49
1135.00,98.46
1134.00,98.43
1133.00,98.40
1132.00,98.36
1131.00,98.33
1130.00,98.29
1129.00,98.26
1128.00,98.22
1127.00,98.18
1126.00,98.14
1125.00,98.10
1124.00,98.06
1123.00,98.01
1122.00,97.96
1121.00,97.92
1120.00,97.87
1119.00,97.83
1118.00,97.78
1117.00,97.73
1116.00,97.68
1115.00,97.64
1114.00,97.59
1113.00,97.55
1112.00,97.51
1111.00,97.47
1110.00,97.42
1109.00,97.37
1108.00,97.32
1107.00,97.26
1106.00,97.20
1105.00,97.13
1104.00,97.06
1103.00,96.99
1102.00,96.93
1101.00,96.87
1100.00,96.82
1099.00,96.78
1098.00,96.75
1097.00,96.72
1096.00,96.69
1095.00,96.67
1094.00,96.65
1093.00,96.65
1092.00,96.66
1091.00,96.67
1090.00,96.70
1089.00,96.72
1088.00,96.73
1087.00,96.74
1086.00,96.74
1085.00,96.74
1084.00,96.74
1083.00,96.74
1082.00,96.73
1081.00,96.72
1080.00,96.71
1079.00,96.69
1078.00,96.68
1077.00,96.66
1076.00,96.64
1075.00,96.63
1074.00,96.61
1073.00,96.59
1072.00,96.57
1071.00,96.55
1070.00,96.53
1069.00,96.51
1068.00,96.48
1067.00,96.45
1066.00,96.42
1065.00,96.37
1064.00,96.32
1063.00,96.26
1062.00,96.21
1061.00,96.15
1060.00,96.09
1059.00,96.02
1058.00,95.96
1057.00,95.90
1056.00,95.84
1055.00,95.80
1054.00,95.76
1053.00,95.73
1052.00,95.71
1051.00,95.69
1050.00,95.69
1049.00,95.70
1048.00,95.71
1047.00,95.73
1046.00,95.75
1045.00,95.78
1044.00,95.82
1043.00,95.85
1042.00,95.88
1041.00,95.91
1040.00,95.93
1039.00,95.93
1038.00,95.93
1037.00,95.91
1036.00,95.88
1035.00,95.84
1034.00,95.80
1033.00,95.77
1032.00,95.73
1031.00,95.70
1030.00,95.68
1029.00,95.65
1028.00,95.64
1027.00,95.63
1026.00,95.63
1025.00,95.64
1024.00,95.65
1023.00,95.67
1022.00,95.69
1021.00,95.70
1020.00,95.70
1019.00,95.70
1018.00,95.70
1017.00,95.71
1016.00,95.74
1015.00,95.80
1014.00,95.88
1013.00,95.97
1012.00,96.09
1011.00,96.21
1010.00,96.35
1009.00,96.48
1008.00,96.61
1007.00,96.73
1006.00,96.85
1005.00,96.96
1004.00,97.06
1003.00,97.15
1002.00,97.24
1001.00,97.33
1000.00,97.41
999.00,97.48
998.00,97.56
997.00,97.63
996.00,97.70
995.00,97.76
994.00,97.83
993.00,97.89
992.00,97.94
991.00,98.00
990.00,98.05
989.00,98.09
988.00,98.13
987.00,98.17
986.00,98.19
985.00,98.22
984.00,98.24
983.00,98.27
982.00,98.31
981.00,98.35
980.00,98.39
979.00,98.43
978.00,98.46
977.00,98.47
976.00,98.47
975.00,98.45
974.00,98.41
973.00,98.33
972.00,98.22
971.00,98.04
970.00,97.80
969.00,97.49
968.00,97.10
967.00,96.61
966.00,96.03
965.00,95.37
964.00,94.63
963.00,93.89
962.00,93.22
961.00,92.72
960.00,92.44
959.00,92.40
958.00,92.55
957.00,92.80
956.00,93.09
955.00,93.35
954.00,93.55
953.00,93.67
952.00,93.72
951.00,93.74
950.00,93.78
949.00,93.87
948.00,94.03
947.00,94.28
946.00,94.59
945.00,94.92
944.00,95.25
943.00,95.57
942.00,95.86
941.00,96.11
940.00,96.33
939.00,96.51
938.00,96.67
937.00,96.80
936.00,96.92
935.00,97.02
934.00,97.12
933.00,97.21
932.00,97.30
931.00,97.39
930.00,97.47
929.00,97.55
928.00,97.63
927.00,97.71
926.00,97.78
925.00,97.86
924.00,97.93
923.00,98.00
922.00,98.06
921.00,98.12
920.00,98.18
919.00,98.23
918.00,98.28
917.00,98.32
916.00,98.36
915.00,98.40
914.00,98.43
913.00,98.45
912.00,98.46
911.00,98.47
910.00,98.46
909.00,98.44
908.00,98.41
907.00,98.37
906.00,98.32
905.00,98.27
904.00,98.22
903.00,98.18
902.00,98.14
901.00,98.11
900.00,98.09
899.00,98.09
898.00,98.09
897.00,98.09
896.00,98.10
895.00,98.11
894.00,98.12
893.00,98.13
892.00,98.15
891.00,98.17
890.00,98.19
889.00,98.21
888.00,98.23
887.00,98.26
886.00,98.28
885.00,98.31
884.00,98.34
883.00,98.37
882.00,98.40
881.00,98.42
880.00,98.42
879.00,98.41
878.00,98.38
877.00,98.32
876.00,98.27
875.00,98.24
874.00,98.25
873.00,98.29
872.00,98.38
871.00,98.48
870.00,98.58
869.00,98.67
868.00,98.76
867.00,98.83
866.00,98.90
865.00,98.96
864.00,99.02
863.00,99.08
862.00,99.13
861.00,99.19
860.00,99.24
859.00,99.28
858.00,99.32
857.00,99.35
856.00,99.38
855.00,99.39
854.00,99.40
853.00,99.41
852.00,99.40
851.00,99.39
850.00,99.38
849.00,99.38
848.00,99.38
847.00,99.39
846.00,99.40
845.00,99.43
844.00,99.45
843.00,99.48
842.00,99.50
841.00,99.51
840.00,99.52
839.00,99.53
838.00,99.52
837.00,99.51
836.00,99.49
835.00,99.47
834.00,99.45
833.00,99.43
832.00,99.42
831.00,99.42
830.00,99.42
829.00,99.43
828.00,99.44
827.00,99.45
826.00,99.44
825.00,99.44
824.00,99.42
823.00,99.41
822.00,99.40
821.00,99.39
820.00,99.38
819.00,99.37
818.00,99.35
817.00,99.32
816.00,99.29
815.00,99.26
814.00,99.24
813.00,99.22
812.00,99.21
811.00,99.18
810.00,99.16
809.00,99.14
808.00,99.11
807.00,99.09
806.00,99.07
805.00,99.06
804.00,99.05
803.00,99.04
802.00,99.03
801.00,99.03
800.00,99.03
799.00,99.03
798.00,99.04
797.00,99.04
796.00,99.03
795.00,99.03
794.00,99.03
793.00,99.04
792.00,99.05
791.00,99.06
790.00,99.07
789.00,99.08
788.00,99.10
787.00,99.11
786.00,99.13
785.00,99.14
784.00,99.15
783.00,99.16
782.00,99.17
781.00,99.18
780.00,99.19
779.00,99.21
778.00,99.23
777.00,99.26
776.00,99.29
775.00,99.32
774.00,99.35
773.00,99.37
772.00,99.40
771.00,99.43
770.00,99.45
769.00,99.47
768.00,99.49
767.00,99.51
766.00,99.52
765.00,99.54
764.00,99.56
763.00,99.57
762.00,99.59
761.00,99.60
760.00,99.61
759.00,99.62
758.00,99.63
757.00,99.63
756.00,99.63
755.00,99.62
754.00,99.62
753.00,99.63
752.00,99.63
751.00,99.64
750.00,99.65
749.00,99.66
748.00,99.66
747.00,99.66
746.00,99.66
745.00,99.65
744.00,99.64
743.00,99.63
742.00,99.61
741.00,99.60
740.00,99.57
739.00,99.54
738.00,99.50
737.00,99.46
736.00,99.40
735.00,99.34
734.00,99.26
733.00,99.18
732.00,99.07
731.00,98.96
730.00,98.85
729.00,98.74
728.00,98.64
727.00,98.58
726.00,98.55
725.00,98.57
724.00,98.63
723.00,98.71
722.00,98.81
721.00,98.91
720.00,99.01
719.00,99.09
718.00,99.17
717.00,99.23
716.00,99.28
715.00,99.32
714.00,99.36
713.00,99.39
712.00,99.42
711.00,99.45
710.00,99.48
709.00,99.51
708.00,99.53
707.00,99.56
706.00,99.58
705.00,99.59
704.00,99.61
703.00,99.63
702.00,99.64
701.00,99.66
700.00,99.67
699.00,99.68
698.00,99.69
697.00,99.71
696.00,99.72
695.00,99.73
694.00,99.74
693.00,99.75
692.00,99.75
691.00,99.76
690.00,99.76
689.00,99.77
688.00,99.78
687.00,99.80
686.00,99.81
685.00,99.82
684.00,99.83
683.00,99.84
682.00,99.85
681.00,99.86
680.00,99.86
679.00,99.86
678.00,99.85
677.00,99.85
676.00,99.85
675.00,99.86
674.00,99.86
673.00,99.87
672.00,99.88
671.00,99.89
670.00,99.89
669.00,99.88
668.00,99.87
667.00,99.85
666.00,99.86
665.00,99.87
664.00,99.89
663.00,99.89
662.00,99.90
661.00,99.90
660.00,99.91
659.00,99.92
658.00,99.93
657.00,99.94
656.00,99.95
655.00,99.96
654.00,99.97
653.00,99.98
652.00,99.99
651.00,100.00
650.00,100.00
649.00,100.01
648.00,100.01
647.00,100.01
646.00,100.01
645.00,100.00
644.00,100.00
643.00,100.00
642.00,99.99
641.00,99.99
640.00,99.98
639.00,99.98
638.00,99.98
637.00,99.98
636.00,99.98
635.00,99.99
634.00,99.99
633.00,99.99
632.00,99.99
631.00,99.99
630.00,99.99
629.00,99.99
628.00,99.99
627.00,99.98
626.00,99.98
625.00,99.97
624.00,99.97
623.00,99.97
622.00,99.97
621.00,99.97
620.00,99.97
619.00,99.97
618.00,99.98
617.00,99.98
616.00,99.98
615.00,99.98
614.00,99.99
613.00,99.99
612.00,99.99
611.00,100.00
610.00,100.00
609.00,100.01
608.00,100.01
607.00,100.02
606.00,100.03
605.00,100.04
604.00,100.04
603.00,100.05
602.00,100.05
601.00,100.05
600.00,100.06
599.00,100.06
598.00,100.06
597.00,100.06
596.00,100.07
595.00,100.07
594.00,100.08
593.00,100.08
592.00,100.08
591.00,100.08
590.00,100.08
589.00,100.09
588.00,100.09
587.00,100.09
586.00,100.10
585.00,100.10
584.00,100.10
583.00,100.10
582.00,100.10
581.00,100.10
580.00,100.09
579.00,100.08
578.00,100.07
577.00,100.06
576.00,100.05
575.00,100.04
574.00,100.04
573.00,100.04
572.00,100.04
571.00,100.05
570.00,100.06
569.00,100.07
568.00,100.08
567.00,100.08
566.00,100.09
565.00,100.09
564.00,100.08
563.00,100.08
562.00,100.07
561.00,100.06
560.00,100.05
559.00,100.03
558.00,100.02
557.00,100.01
556.00,100.00
555.00,99.99
554.00,99.98
553.00,99.99
552.00,99.99
551.00,99.99
550.00,99.99
549.00,99.99
548.00,100.00
547.00,100.00
546.00,100.00
545.00,100.00
544.00,99.99
543.00,99.99
542.00,99.99
541.00,99.98
540.00,99.97
539.00,99.97
538.00,99.96
537.00,99.95
536.00,99.94
535.00,99.92
534.00,99.91
533.00,99.89
532.00,99.87
531.00,99.85
530.00,99.82
529.00,99.80
528.00,99.76
527.00,99.72
526.00,99.67
525.00,99.62
524.00,99.57
523.00,99.51
522.00,99.46
521.00,99.42
520.00,99.39
519.00,99.37
518.00,99.36
517.00,99.36
516.00,99.36
515.00,99.37
514.00,99.37
513.00,99.37
512.00,99.36
511.00,99.34
510.00,99.33
509.00,99.31
508.00,99.30
507.00,99.29
506.00,99.28
505.00,99.27
504.00,99.27
503.00,99.27
502.00,99.28
501.00,99.30
500.00,99.31
499.00,99.33
498.00,99.34
497.00,99.35
496.00,99.36
495.00,99.38
494.00,99.39
493.00,99.40
492.00,99.42
491.00,99.42
490.00,99.43
489.00,99.44
488.00,99.45
487.00,99.46
486.00,99.47
485.00,99.47
484.00,99.47
483.00,99.46
482.00,99.46
481.00,99.47
480.00,99.47
479.00,99.48
478.00,99.48
477.00,99.48
476.00,99.47
475.00,99.47
474.00,99.47
473.00,99.47
472.00,99.47
471.00,99.46
470.00,99.44
469.00,99.43
468.00,99.43
467.00,99.43
466.00,99.43
465.00,99.43
464.00,99.42
463.00,99.42
462.00,99.42
461.00,99.42
460.00,99.42
459.00,99.42
458.00,99.42
457.00,99.42
456.00,99.42
455.00,99.43
454.00,99.44
453.00,99.45
452.00,99.47
451.00,99.48
450.00,99.49
449.00,99.49
448.00,99.49
447.00,99.49
446.00,99.49
445.00,99.50
444.00,99.51
443.00,99.53
442.00,99.55
441.00,99.56
440.00,99.57
439.00,99.58
438.00,99.59
437.00,99.61
436.00,99.63
435.00,99.64
434.00,99.65
433.00,99.66
432.00,99.67
431.00,99.68
430.00,99.70
429.00,99.72
428.00,99.74
427.00,99.74
426.00,99.75
425.00,99.77
424.00,99.79
423.00,99.82
422.00,99.83
421.00,99.85
420.00,99.86
419.00,99.86
418.00,99.87
417.00,99.89
416.00,99.92
415.00,99.95
414.00,99.97
413.00,99.99
412.00,99.99
411.00,100.00
410.00,100.01
409.00,100.02
408.00,100.04
407.00,100.05
406.00,100.06
405.00,100.06
404.00,100.06
403.00,100.05
402.00,100.05
401.00,100.06
400.00,100.06
