280.00000	2.12162
280.50000	2.12162
281.00000	2.12162
281.50000	2.12162
282.00000	2.12162
282.50000	2.12162
283.00000	2.12162
283.50000	2.12162
284.00000	2.12162
284.50000	2.12162
285.00000	2.12162
285.50000	2.12162
286.00000	2.12162
286.50000	2.54269
287.00000	3.04396
287.50000	3.57287
288.00000	4.10168
288.50000	4.62815
289.00000	5.18443
289.50000	5.81260
290.00000	6.53383
290.50000	7.29550
291.00000	8.00376
291.50000	8.55567
292.00000	8.88473
292.50000	8.98248
293.00000	8.86783
293.50000	8.62838
294.00000	8.33860
294.50000	8.03886
295.00000	7.74197
295.50000	7.44564
296.00000	7.15747
296.50000	6.90420
297.00000	6.71578
297.50000	6.60542
298.00000	6.56421
298.50000	6.55406
299.00000	6.53978
299.50000	6.49272
300.00000	6.39992
300.50000	6.24577
301.00000	6.03255
301.50000	5.72540
302.00000	5.30192
302.50000	4.76411
303.00000	4.17002
303.50000	3.60060
304.00000	3.14919
304.50000	2.88764
305.00000	2.84949
305.50000	3.02035
306.00000	3.34964
306.50000	3.77327
307.00000	4.22472
307.50000	4.64731
308.00000	4.99150
308.50000	5.22610
309.00000	5.34966
309.50000	5.38602
310.00000	5.37011
310.50000	5.33182
311.00000	5.27918
311.50000	5.18415
312.00000	5.00642
312.50000	4.72391
313.00000	4.36041
313.50000	3.96338
314.00000	3.63073
314.50000	3.45765
315.00000	3.48725
315.50000	3.69468
316.00000	4.01018
316.50000	4.36834
317.00000	4.68059
317.50000	4.88986
318.00000	4.96682
318.50000	4.89963
319.00000	4.68025
319.50000	4.31645
320.00000	3.83049
320.50000	3.28040
321.00000	2.75129
321.50000	2.32252
322.00000	2.03736
322.50000	1.89847
323.00000	1.86529
323.50000	1.87857
324.00000	1.88910
324.50000	1.88521
325.00000	1.88709
325.50000	1.92865
326.00000	2.02620
326.50000	2.18101
327.00000	2.35889
327.50000	2.52334
328.00000	2.64414
328.50000	2.72145
329.00000	2.73943
329.50000	2.71787
330.00000	2.67798
330.50000	2.63661
331.00000	2.60415
331.50000	2.58964
332.00000	2.60022
332.50000	2.64548
333.00000	2.72781
333.50000	2.84188
334.00000	2.97483
334.50000	3.11467
335.00000	3.23421
335.50000	3.30755
336.00000	3.30891
336.50000	3.23073
337.00000	3.06805
337.50000	2.85438
338.00000	2.64023
338.50000	2.48406
339.00000	2.41864
339.50000	2.46456
340.00000	2.60585
340.50000	2.81163
341.00000	3.04577
341.50000	3.28636
342.00000	3.51846
342.50000	3.72968
343.00000	3.89746
343.50000	3.98680
344.00000	3.98144
344.50000	3.86544
345.00000	3.65012
345.50000	3.37945
346.00000	3.10185
346.50000	2.85017
347.00000	2.62654
347.50000	2.41898
348.00000	2.20952
348.50000	2.00524
349.00000	1.84299
349.50000	1.80019
350.00000	1.94566
350.50000	2.31516
351.00000	2.89966
351.50000	3.65436
352.00000	4.49853
352.50000	5.35114
353.00000	6.14187
353.50000	6.81779
354.00000	7.33509
354.50000	7.66706
355.00000	7.79665
355.50000	7.72042
356.00000	7.45824
356.50000	7.02759
357.00000	6.47010
357.50000	5.83439
358.00000	5.16932
358.50000	4.52484
359.00000	3.94856
359.50000	3.47898
360.00000	3.13632
360.50000	2.91802
361.00000	2.79446
361.50000	2.72202
362.00000	2.66857
362.50000	2.60462
363.00000	2.52402
363.50000	2.43969
364.00000	2.36354
364.50000	2.29635
365.00000	2.22455
365.50000	2.13350
366.00000	2.02297
366.50000	1.91846
367.00000	1.86564
367.50000	1.90132
368.00000	2.03963
368.50000	2.26139
369.00000	2.52001
369.50000	2.75847
370.00000	2.93664
370.50000	3.04380
371.00000	3.09472
371.50000	3.11544
372.00000	3.12870
372.50000	3.15007
373.00000	3.18989
373.50000	3.27423
374.00000	3.42102
374.50000	3.62702
375.00000	3.87070
375.50000	4.10912
376.00000	4.27477
376.50000	4.33320
377.00000	4.26384
377.50000	4.10541
378.00000	3.93543
378.50000	3.83504
379.00000	3.85347
379.50000	3.97005
380.00000	4.11983
380.50000	4.21382
381.00000	4.18171
381.50000	3.99566
382.00000	3.68581
382.50000	3.31967
383.00000	2.97616
383.50000	2.72268
384.00000	2.60186
384.50000	2.62085
385.00000	2.75365
385.50000	2.94895
386.00000	3.13169
386.50000	3.21726
387.00000	3.14437
387.50000	2.89691
388.00000	2.51109
388.50000	2.07259
389.00000	1.66230
389.50000	1.36806
390.00000	1.23233
390.50000	1.24640
391.00000	1.35976
391.50000	1.50428
392.00000	1.62451
392.50000	1.69704
393.00000	1.73507
393.50000	1.77771
394.00000	1.87266
394.50000	2.06432
395.00000	2.35826
395.50000	2.72861
396.00000	3.12169
396.50000	3.46861
397.00000	3.70664
397.50000	3.80196
398.00000	3.75933
398.50000	3.60578
399.00000	3.39314
399.50000	3.17042
400.00000	2.96623
400.50000	2.78081
401.00000	2.59185
401.50000	2.37116
402.00000	2.09751
402.50000	1.76842
403.00000	1.40310
403.50000	1.04371
404.00000	0.74377
404.50000	0.56069
405.00000	0.54412
405.50000	0.71278
406.00000	1.05481
406.50000	1.52809
407.00000	2.05765
407.50000	2.57070
408.00000	3.01281
408.50000	3.36087
409.00000	3.62485
409.50000	3.83865
410.00000	4.03651
410.50000	4.23062
411.00000	4.40041
411.50000	4.49874
412.00000	4.47343
412.50000	4.29163
413.00000	3.96323
413.50000	3.54935
414.00000	3.14339
414.50000	2.83570
415.00000	2.68900
415.50000	2.71996
416.00000	2.88789
416.50000	3.12233
417.00000	3.35558
417.50000	3.53682
418.00000	3.65206
418.50000	3.71800
419.00000	3.76964
419.50000	3.84647
420.00000	3.97948
420.50000	4.19020
421.00000	4.48441
421.50000	4.84562
422.00000	5.23617
422.50000	5.59808
423.00000	5.86640
423.50000	5.99611
424.00000	5.98975
424.50000	5.89407
425.00000	5.78981
425.50000	5.75510
426.00000	5.83692
426.50000	6.02512
427.00000	6.27071
427.50000	6.50729
428.00000	6.67930
428.50000	6.77590
429.00000	6.81984
429.50000	6.84896
430.00000	6.88698
430.50000	6.93269
431.00000	6.95243
431.50000	6.91317
432.00000	6.79391
432.50000	6.56246
433.00000	6.21589
433.50000	5.77216
434.00000	5.26389
434.50000	4.72306
435.00000	4.17991
435.50000	3.66130
436.00000	3.19427
436.50000	2.80090
437.00000	2.50451
437.50000	2.32506
438.00000	2.27812
438.50000	2.36523
439.00000	2.58082
439.50000	2.91066
440.00000	3.33630
440.50000	3.83664
441.00000	4.38207
441.50000	4.94186
442.00000	5.47070
442.50000	5.91773
443.00000	6.24020
443.50000	6.42588
444.00000	6.47691
444.50000	6.40224
445.00000	6.25950
445.50000	6.10343
446.00000	5.97430
446.50000	5.88768
447.00000	5.84397
447.50000	5.82992
448.00000	5.83834
448.50000	5.85775
449.00000	5.87324
449.50000	5.86100
450.00000	5.80964
450.50000	5.71905
451.00000	5.61127
451.50000	5.51736
452.00000	5.47008
452.50000	5.46640
453.00000	5.46254
453.50000	5.38824
454.00000	5.19106
454.50000	4.85833
455.00000	4.43797
455.50000	4.01646
456.00000	3.69577
456.50000	3.52970
457.00000	3.51525
457.50000	3.59355
458.00000	3.69329
458.50000	3.75719
459.00000	3.76243
459.50000	3.71305
460.00000	3.63254
460.50000	3.53809
461.00000	3.44294
461.50000	3.35287
462.00000	3.28499
462.50000	3.25143
463.00000	3.25439
463.50000	3.26807
464.00000	3.24240
464.50000	3.11043
465.00000	2.82791
465.50000	2.40742
466.00000	1.92734
466.50000	1.49061
467.00000	1.19163
467.50000	1.06911
468.00000	1.09340
468.50000	1.16269
469.00000	1.17152
469.50000	1.05958
470.00000	0.84119
470.50000	0.58738
471.00000	0.38970
471.50000	0.32113
472.00000	0.40075
472.50000	0.58871
473.00000	0.81191
473.50000	1.01384
474.00000	1.17574
474.50000	1.31987
475.00000	1.48621
475.50000	1.71570
476.00000	2.01301
476.50000	2.34965
477.00000	2.66799
477.50000	2.91928
478.00000	3.07653
478.50000	3.12030
479.00000	3.05186
479.50000	2.89362
480.00000	2.68289
480.50000	2.47614
481.00000	2.33518
481.50000	2.31224
482.00000	2.42932
482.50000	2.66443
483.00000	2.95263
483.50000	3.20658
484.00000	3.35026
484.50000	3.33836
485.00000	3.18016
485.50000	2.93950
486.00000	2.69037
486.50000	2.50241
487.00000	2.41617
487.50000	2.44416
488.00000	2.55415
488.50000	2.70881
489.00000	2.85510
489.50000	2.95231
490.00000	2.96560
490.50000	2.87831
491.00000	2.71281
491.50000	2.50766
492.00000	2.31640
492.50000	2.19104
493.00000	2.16119
493.50000	2.23329
494.00000	2.40563
494.50000	2.65863
495.00000	2.97762
495.50000	3.34054
496.00000	3.72445
496.50000	4.08712
497.00000	4.39647
497.50000	4.63526
498.00000	4.80691
498.50000	4.93324
499.00000	5.03173
499.50000	5.10106
500.00000	5.11185
500.50000	5.02194
501.00000	4.80244
501.50000	4.47475
502.00000	4.09606
502.50000	3.73432
503.00000	3.43924
503.50000	3.20366
504.00000	2.99253
504.50000	2.77609
505.00000	2.53880
505.50000	2.31525
506.00000	2.17570
506.50000	2.17157
507.00000	2.31884
507.50000	2.57234
508.00000	2.86615
508.50000	3.15081
509.00000	3.42432
509.50000	3.72834
510.00000	4.08628
510.50000	4.48058
511.00000	4.84287
511.50000	5.09822
512.00000	5.20239
512.50000	5.19051
513.00000	5.17143
513.50000	5.27371
514.00000	5.54882
514.50000	5.95425
515.00000	6.37601
515.50000	6.67030
516.00000	6.74746
516.50000	6.60413
517.00000	6.29188
517.50000	5.89709
518.00000	5.47380
518.50000	5.02726
519.00000	4.53228
519.50000	3.97789
520.00000	3.39935
520.50000	2.87274
521.00000	2.47911
521.50000	2.26297
522.00000	2.19215
522.50000	2.20326
523.00000	2.22876
523.50000	2.23984
524.00000	2.24947
524.50000	2.30607
525.00000	2.44848
525.50000	2.68288
526.00000	2.96231
526.50000	3.23073
527.00000	3.44092
527.50000	3.56924
528.00000	3.61130
528.50000	3.56945
529.00000	3.43261
529.50000	3.17806
530.00000	2.78571
530.50000	2.25593
531.00000	1.62998
531.50000	0.99699
532.00000	0.46804
532.50000	0.14703
533.00000	0.11352
533.50000	0.38880
534.00000	0.94073
534.50000	1.69890
535.00000	2.56423
535.50000	3.43406
536.00000	4.22365
536.50000	4.87486
537.00000	5.35258
537.50000	5.64719
538.00000	5.76642
538.50000	5.72875
539.00000	5.56061
539.50000	5.28885
540.00000	4.93731
540.50000	4.52390
541.00000	4.06412
541.50000	3.57485
542.00000	3.08295
542.50000	2.62864
543.00000	2.27333
543.50000	2.07643
544.00000	2.08508
544.50000	2.31803
545.00000	2.76798
545.50000	3.38896
546.00000	4.12567
546.50000	4.91328
547.00000	5.68742
547.50000	6.39548
548.00000	7.00255
548.50000	7.49026
549.00000	7.86636
549.50000	8.16616
550.00000	8.43888
550.50000	8.71238
551.00000	8.97865
551.50000	9.17996
552.00000	9.23316
552.50000	9.07932
553.00000	8.66946
553.50000	8.03546
554.00000	7.28048
554.50000	6.52591
555.00000	5.87821
555.50000	5.39812
556.00000	5.09048
556.50000	4.92907
557.00000	4.88390
557.50000	4.93738
558.00000	5.08734
558.50000	5.33132
559.00000	5.65835
559.50000	6.04670
560.00000	6.47141
560.50000	6.91429
561.00000	7.36410
561.50000	7.79551
562.00000	8.15513
562.50000	8.36063
563.00000	8.33173
563.50000	8.02032
564.00000	7.44339
564.50000	6.68651
565.00000	5.84796
565.50000	5.06552
566.00000	4.42992
566.50000	3.96086
567.00000	3.62511
567.50000	3.36279
568.00000	3.11292
568.50000	2.84282
569.00000	2.54918
569.50000	2.24692
570.00000	1.95911
570.50000	1.70492
571.00000	1.49462
571.50000	1.33236
572.00000	1.21783
572.50000	1.14728
573.00000	1.11223
573.50000	1.10863
574.00000	1.13787
574.50000	1.21348
575.00000	1.34966
575.50000	1.55582
576.00000	1.82425
576.50000	2.13242
577.00000	2.44466
577.50000	2.73093
578.00000	2.96981
578.50000	3.15361
579.00000	3.28513
579.50000	3.37332
580.00000	3.42238
580.50000	3.43271
581.00000	3.40512
581.50000	3.34552
582.00000	3.26419
582.50000	3.17436
583.00000	3.08714
583.50000	3.01307
584.00000	2.95576
584.50000	2.92015
585.00000	2.91340
585.50000	2.95232
586.00000	3.04930
586.50000	3.21307
587.00000	3.42784
587.50000	3.65118
588.00000	3.81286
588.50000	3.85618
589.00000	3.72888
589.50000	3.42158
590.00000	2.99567
590.50000	2.57120
591.00000	2.29506
591.50000	2.28480
592.00000	2.59478
592.50000	3.16789
593.00000	3.87471
593.50000	4.55213
594.00000	5.07483
594.50000	5.35400
595.00000	5.40095
595.50000	5.29648
596.00000	5.16617
596.50000	5.12253
597.00000	5.23898
597.50000	5.51834
598.00000	5.89561
598.50000	6.25054
599.00000	6.44931
599.50000	6.38000
600.00000	5.99756
600.50000	5.35505
601.00000	4.57580
601.50000	3.83221
602.00000	3.28831
602.50000	3.04023
603.00000	3.08710
603.50000	3.33087
604.00000	3.62668
604.50000	3.80901
605.00000	3.76899
605.50000	3.47318
606.00000	2.96984
606.50000	2.34630
607.00000	1.75281
607.50000	1.31982
608.00000	1.13001
608.50000	1.18153
609.00000	1.41254
609.50000	1.71193
610.00000	1.97773
610.50000	2.15146
611.00000	2.24691
611.50000	2.32359
612.00000	2.45543
612.50000	2.69058
613.00000	3.02494
613.50000	3.40097
614.00000	3.74540
614.50000	4.00862
615.00000	4.18011
615.50000	4.29332
616.00000	4.39479
616.50000	4.51700
617.00000	4.66294
617.50000	4.80877
618.00000	4.91167
618.50000	4.93920
619.00000	4.88107
619.50000	4.74397
620.00000	4.55496
620.50000	4.35089
621.00000	4.16381
621.50000	4.00588
622.00000	3.87049
622.50000	3.72973
623.00000	3.54937
623.50000	3.31426
624.00000	3.00333
624.50000	2.62115
625.00000	2.19460
625.50000	1.76876
626.00000	1.39157
626.50000	1.10556
627.00000	0.93507
627.50000	0.88445
628.00000	0.93010
628.50000	1.03497
629.00000	1.15202
629.50000	1.24300
630.00000	1.29262
630.50000	1.30955
631.00000	1.31720
631.50000	1.33730
632.00000	1.38840
632.50000	1.46320
633.00000	1.55765
633.50000	1.67067
634.00000	1.81414
634.50000	2.00079
635.00000	2.25554
635.50000	2.58469
636.00000	2.96017
636.50000	3.34750
637.00000	3.71131
637.50000	4.01568
638.00000	4.22940
638.50000	4.32604
639.00000	4.27936
639.50000	4.09183
640.00000	3.79833
640.50000	3.46811
641.00000	3.18109
641.50000	3.00154
642.00000	2.93049
642.50000	2.90362
643.00000	2.81234
643.50000	2.58029
644.00000	2.19086
644.50000	1.72270
645.00000	1.32123
645.50000	1.12532
646.00000	1.19034
646.50000	1.47708
647.00000	1.87976
647.50000	2.27391
648.00000	2.57623
648.50000	2.76898
649.00000	2.88581
649.50000	2.97131
650.00000	3.04454
650.50000	3.10447
651.00000	3.14524
651.50000	3.19531
652.00000	3.30229
652.50000	3.51233
653.00000	3.83066
653.50000	4.20985
654.00000	4.54300
654.50000	4.71974
655.00000	4.67916
655.50000	4.44306
656.00000	4.08393
656.50000	3.71681
657.00000	3.42385
657.50000	3.23061
658.00000	3.08739
658.50000	2.92525
659.00000	2.68910
659.50000	2.37723
660.00000	2.04061
660.50000	1.77122
661.00000	1.65294
661.50000	1.71577
662.00000	1.91650
662.50000	2.16914
663.00000	2.38889
663.50000	2.52403
664.00000	2.57502
664.50000	2.59498
665.00000	2.65928
665.50000	2.82266
666.00000	3.09658
666.50000	3.46316
667.00000	3.88138
667.50000	4.31272
668.00000	4.74215
668.50000	5.17180
669.00000	5.59365
669.50000	5.98605
670.00000	6.31595
670.50000	6.56039
671.00000	6.72167
671.50000	6.82865
672.00000	6.91747
672.50000	7.00272
673.00000	7.04952
673.50000	6.98193
674.00000	6.71832
674.50000	6.21852
675.00000	5.52076
675.50000	4.73116
676.00000	3.99304
676.50000	3.44186
677.00000	3.15563
677.50000	3.12577
678.00000	3.28203
678.50000	3.52532
679.00000	3.75772
679.50000	3.91913
680.00000	3.99472
680.50000	3.99650
681.00000	3.91851
681.50000	3.76210
682.00000	3.52933
682.50000	3.23490
683.00000	2.90636
683.50000	2.58274
684.00000	2.29837
684.50000	2.08066
685.00000	1.94070
685.50000	1.87845
686.00000	1.88723
686.50000	1.97115
687.00000	2.14541
687.50000	2.43187
688.00000	2.84480
688.50000	3.38404
689.00000	4.01743
689.50000	4.67647
690.00000	5.27171
690.50000	5.72491
691.00000	5.98973
691.50000	6.07635
692.00000	6.04910
692.50000	5.98759
693.00000	5.93502
693.50000	5.91564
694.00000	5.91258
694.50000	5.89718
695.00000	5.84956
695.50000	5.78435
696.00000	5.73800
696.50000	5.75192
697.00000	5.82143
697.50000	5.89631
698.00000	5.90240
698.50000	5.79220
699.00000	5.56440
699.50000	5.27479
700.00000	4.99493
700.50000	4.77373
701.00000	4.58317
701.50000	4.34145
702.00000	3.96776
702.50000	3.42297
703.00000	2.74151
703.50000	2.05601
704.00000	1.52411
704.50000	1.26376
705.00000	1.27924
705.50000	1.49829
706.00000	1.80763
706.50000	2.12139
707.00000	2.41103
707.50000	2.72348
708.00000	3.12795
708.50000	3.67057
709.00000	4.32722
709.50000	5.03197
710.00000	5.69848
710.50000	6.27037
711.00000	6.72390
711.50000	7.07805
712.00000	7.34492
712.50000	7.51678
713.00000	7.54940
713.50000	7.40823
714.00000	7.08345
714.50000	6.59748
715.00000	6.02410
715.50000	5.46980
716.00000	5.01425
716.50000	4.69068
717.00000	4.47381
717.50000	4.32192
718.00000	4.17550
718.50000	3.99478
719.00000	3.76766
719.50000	3.53250
720.00000	3.32505
720.50000	3.18050
721.00000	3.10422
721.50000	3.07246
722.00000	3.02114
722.50000	2.88039
723.00000	2.60650
723.50000	2.21420
724.00000	1.76028
724.50000	1.34302
725.00000	1.05511
725.50000	0.95277
726.00000	1.02646
726.50000	1.23080
727.00000	1.50281
727.50000	1.79419
728.00000	2.07318
728.50000	2.33356
729.00000	2.56768
729.50000	2.75873
730.00000	2.87418
730.50000	2.89217
731.00000	2.81516
731.50000	2.68054
732.00000	2.54013
732.50000	2.46417
733.00000	2.50803
733.50000	2.68460
734.00000	2.95870
734.50000	3.27336
735.00000	3.56723
735.50000	3.80080
736.00000	3.97805
736.50000	4.13463
737.00000	4.31034
737.50000	4.53020
738.00000	4.78010
738.50000	5.01442
739.00000	5.14704
739.50000	5.09178
740.00000	4.80299
740.50000	4.29831
741.00000	3.63825
741.50000	2.92579
742.00000	2.26938
742.50000	1.76182
743.00000	1.46002
743.50000	1.39893
744.00000	1.58737
744.50000	2.01289
745.00000	2.63558
745.50000	3.38622
746.00000	4.17610
746.50000	4.91949
747.00000	5.54899
747.50000	6.04327
748.00000	6.42320
748.50000	6.72506
749.00000	6.98514
749.50000	7.22337
750.00000	7.43162
750.50000	7.58627
751.00000	7.65654
751.50000	7.63815
752.00000	7.53315
752.50000	7.34349
753.00000	7.07463
753.50000	6.76567
754.00000	6.48110
754.50000	6.30797
755.00000	6.31151
755.50000	6.51716
756.00000	6.85518
756.50000	7.20247
757.00000	7.42390
757.50000	7.46369
758.00000	7.28150
758.50000	6.92339
759.00000	6.46211
759.50000	5.96690
760.00000	5.47794
760.50000	5.02950
761.00000	4.65941
761.50000	4.42112
762.00000	4.35969
762.50000	4.47232
763.00000	4.69166
763.50000	4.90388
764.00000	4.98681
764.50000	4.87499
765.00000	4.59667
765.50000	4.25956
766.00000	3.98892
766.50000	3.87152
767.00000	3.91043
767.50000	4.04660
768.00000	4.18701
768.50000	4.28724
769.00000	4.34844
769.50000	4.42378
770.00000	4.53365
770.50000	4.73025
771.00000	5.02168
771.50000	5.39553
772.00000	5.82014
772.50000	6.25925
773.00000	6.67729
773.50000	7.03885
774.00000	7.32053
774.50000	7.51477
775.00000	7.65675
775.50000	7.79611
776.00000	7.98894
776.50000	8.25681
777.00000	8.57765
777.50000	8.88325
778.00000	9.11475
778.50000	9.25721
779.00000	9.35307
779.50000	9.49118
780.00000	9.75906
780.50000	10.20030
781.00000	10.78536
781.50000	11.45033
782.00000	12.11421
782.50000	12.71738
783.00000	13.22162
783.50000	13.59143
784.00000	13.77489
784.50000	13.71149
785.00000	13.36610
785.50000	12.74388
786.00000	11.92527
786.50000	11.02591
787.00000	10.15274
787.50000	9.34139
788.00000	8.56499
788.50000	7.74942
789.00000	6.83117
789.50000	5.80779
790.00000	4.76242
790.50000	3.82777
791.00000	3.12829
791.50000	2.73319
792.00000	2.63437
792.50000	2.75377
793.00000	2.98632
793.50000	3.24987
794.00000	3.51989
794.50000	3.82892
795.00000	4.23516
795.50000	4.77033
796.00000	5.41996
796.50000	6.09131
797.00000	6.66025
797.50000	7.01465
798.00000	7.11440
798.50000	6.96419
799.00000	6.63452
799.50000	6.21056
800.00000	5.77716
800.50000	5.39355
801.00000	5.11098
801.50000	4.96796
802.00000	4.99062
802.50000	5.17574
803.00000	5.46633
803.50000	5.76010
804.00000	5.93455
804.50000	5.89310
805.00000	5.62927
805.50000	5.18539
806.00000	4.66610
806.50000	4.18142
807.00000	3.81296
807.50000	3.58381
808.00000	3.47556
808.50000	3.43842
809.00000	3.46728
809.50000	3.55832
810.00000	3.72646
810.50000	3.96020
811.00000	4.25332
811.50000	4.56654
812.00000	4.89034
812.50000	5.23277
813.00000	5.63343
813.50000	6.10181
814.00000	6.60688
814.50000	7.06182
815.00000	7.35976
815.50000	7.40684
816.00000	7.19052
816.50000	6.77616
817.00000	6.28535
817.50000	5.80966
818.00000	5.44930
818.50000	5.26446
819.00000	5.29484
819.50000	5.56274
820.00000	6.07654
820.50000	6.80708
821.00000	7.68272
821.50000	8.56982
822.00000	9.34576
822.50000	9.92373
823.00000	10.29383
823.50000	10.50512
824.00000	10.63640
824.50000	10.71751
825.00000	10.71628
825.50000	10.54492
826.00000	10.12016
826.50000	9.42721
827.00000	8.54276
827.50000	7.60736
828.00000	6.78603
828.50000	6.19899
829.00000	5.89166
829.50000	5.83430
830.00000	5.95594
830.50000	6.15794
831.00000	6.34809
831.50000	6.45083
832.00000	6.42655
832.50000	6.24996
833.00000	5.94299
833.50000	5.55956
834.00000	5.16966
834.50000	4.82798
835.00000	4.55407
835.50000	4.31704
836.00000	4.05175
836.50000	3.69449
837.00000	3.22519
837.50000	2.67773
838.00000	2.13451
838.50000	1.70805
839.00000	1.49508
839.50000	1.53746
840.00000	1.81067
840.50000	2.23514
841.00000	2.69040
841.50000	3.06870
842.00000	3.27809
842.50000	3.28823
843.00000	3.13043
843.50000	2.89013
844.00000	2.67824
844.50000	2.58127
845.00000	2.65344
845.50000	2.89364
846.00000	3.25768
846.50000	3.67753
847.00000	4.08710
847.50000	4.44360
848.00000	4.73505
848.50000	4.97374
849.00000	5.18916
849.50000	5.40719
850.00000	5.64453
850.50000	5.89871
851.00000	6.15007
851.50000	6.36215
852.00000	6.50352
852.50000	6.55482
853.00000	6.52253
853.50000	6.44840
854.00000	6.37632
854.50000	6.37552
855.00000	6.49891
855.50000	6.76762
856.00000	7.15315
856.50000	7.58246
857.00000	7.95216
857.50000	8.16832
858.00000	8.17755
858.50000	7.98120
859.00000	7.63360
859.50000	7.21752
860.00000	6.80727
860.50000	6.42646
861.00000	6.05158
861.50000	5.62832
862.00000	5.11464
862.50000	4.50734
863.00000	3.86491
863.50000	3.28325
864.00000	2.85672
864.50000	2.63005
865.00000	2.59069
865.50000	2.68309
866.00000	2.83410
866.50000	2.99667
867.00000	3.14846
867.50000	3.27969
868.00000	3.36660
868.50000	3.36894
869.00000	3.24442
869.50000	2.97874
870.00000	2.61952
870.50000	2.26496
871.00000	2.01472
871.50000	1.92300
872.00000	1.96578
872.50000	2.04617
873.00000	2.05813
873.50000	1.93528
874.00000	1.68338
874.50000	1.36606
875.00000	1.07726
875.50000	0.88947
876.00000	0.83777
876.50000	0.92089
877.00000	1.14371
877.50000	1.50826
878.00000	2.02156
878.50000	2.66667
879.00000	3.38728
879.50000	4.08908
880.00000	4.67729
880.50000	5.09146
881.00000	5.32734
881.50000	5.43205
882.00000	5.47667
882.50000	5.51138
883.00000	5.53380
883.50000	5.50726
884.00000	5.37466
884.50000	5.09844
885.00000	4.67565
885.50000	4.13882
886.00000	3.53727
886.50000	2.92440
887.00000	2.34853
887.50000	1.85104
888.00000	1.47738
888.50000	1.27619
889.00000	1.28788
889.50000	1.50740
890.00000	1.89523
890.50000	2.35772
891.00000	2.78389
891.50000	3.07716
892.00000	3.20697
892.50000	3.18744
893.00000	3.07709
893.50000	2.94430
894.00000	2.84054
894.50000	2.77602
895.00000	2.73310
895.50000	2.68006
896.00000	2.58973
896.50000	2.44465
897.00000	2.24690
897.50000	2.01388
898.00000	1.78250
898.50000	1.60416
899.00000	1.54332
899.50000	1.65224
900.00000	1.95217
900.50000	2.41243
901.00000	2.95111
901.50000	3.46148
902.00000	3.83120
902.50000	3.98906
903.00000	3.93850
903.50000	3.75601
904.00000	3.56462
904.50000	3.47962
905.00000	3.56358
905.50000	3.81180
906.00000	4.15776
906.50000	4.49866
907.00000	4.74099
907.50000	4.83451
908.00000	4.77769
908.50000	4.60716
909.00000	4.38936
909.50000	4.19284
910.00000	4.06865
910.50000	4.03055
911.00000	4.04819
911.50000	4.05463
912.00000	3.95306
912.50000	3.66905
913.00000	3.18586
913.50000	2.55746
914.00000	1.87494
914.50000	1.25621
915.00000	0.79346
915.50000	0.53256
916.00000	0.47013
916.50000	0.57630
917.00000	0.79609
917.50000	1.08393
918.00000	1.38581
918.50000	1.65400
919.00000	1.85139
919.50000	1.97220
920.00000	2.02972
920.50000	2.05382
921.00000	2.06927
921.50000	2.08001
922.00000	2.06413
922.50000	1.99077
923.00000	1.84070
923.50000	1.61686
924.00000	1.33308
924.50000	1.03016
925.00000	0.75398
925.50000	0.54217
926.00000	0.40883
926.50000	0.34390
927.00000	0.30652
927.50000	0.26093
928.00000	0.14942
928.50000	-0.03375
929.00000	-0.24071
929.50000	-0.37373
930.00000	-0.34338
930.50000	-0.08980
931.00000	0.35347
931.50000	0.89330
932.00000	1.40892
932.50000	1.83171
933.00000	2.15046
933.50000	2.40959
934.00000	2.65961
934.50000	2.92933
935.00000	3.19990
935.50000	3.42878
936.00000	3.58193
936.50000	3.65193
937.00000	3.63786
937.50000	3.53807
938.00000	3.34597
938.50000	3.06624
939.00000	2.76191
939.50000	2.56425
940.00000	2.61227
940.50000	3.04729
941.00000	3.92589
941.50000	5.21298
942.00000	6.80185
942.50000	8.59724
943.00000	10.57018
943.50000	12.80932
944.00000	15.44128
944.50000	18.57175
945.00000	22.21011
945.50000	26.23841
946.00000	30.45553
946.50000	34.64898
947.00000	38.64079
947.50000	42.31094
948.00000	45.57115
948.50000	48.34289
949.00000	50.54739
949.50000	52.16533
950.00000	53.25654
950.50000	53.96735
951.00000	54.48273
951.50000	54.94972
952.00000	55.37354
952.50000	55.64066
953.00000	55.58142
953.50000	55.07294
954.00000	54.10099
954.50000	52.80185
955.00000	51.39685
955.50000	50.08339
956.00000	48.94208
956.50000	47.93868
957.00000	46.95561
957.50000	45.84711
958.00000	44.52463
958.50000	42.99310
959.00000	41.32442
959.50000	39.62030
960.00000	37.95547
960.50000	36.37685
961.00000	34.88457
961.50000	33.46908
962.00000	32.10265
962.50000	30.77952
963.00000	29.48295
963.50000	28.19043
964.00000	26.83823
964.50000	25.36551
965.00000	23.70580
965.50000	21.82042
966.00000	19.71090
966.50000	17.44337
967.00000	15.10958
967.50000	12.81486
968.00000	10.64448
968.50000	8.65396
969.00000	6.84569
969.50000	5.20129
970.00000	3.69709
970.50000	2.36770
971.00000	1.24051
971.50000	0.38927
972.00000	-0.11783
972.50000	-0.21351
973.00000	0.07562
973.50000	0.66856
974.00000	1.41514
974.50000	2.16659
975.00000	2.77988
975.50000	3.22818
976.00000	3.57219
976.50000	3.93538
977.00000	4.41950
977.50000	5.07147
978.00000	5.83267
978.50000	6.58203
979.00000	7.17627
979.50000	7.56125
980.00000	7.71132
980.50000	7.65181
981.00000	7.40824
981.50000	7.00258
982.00000	6.44145
982.50000	5.76711
983.00000	5.04658
983.50000	4.42718
984.00000	4.04419
984.50000	3.96892
985.00000	4.13905
985.50000	4.41608
986.00000	4.61400
986.50000	4.60703
987.00000	4.37665
987.50000	4.05472
988.00000	3.81106
988.50000	3.79702
989.00000	4.06086
989.50000	4.55904
990.00000	5.14787
990.50000	5.68363
991.00000	6.05953
991.50000	6.25564
992.00000	6.24971
992.50000	6.09805
993.00000	5.87282
993.50000	5.66892
994.00000	5.58837
994.50000	5.74835
995.00000	6.21091
995.50000	6.95990
996.00000	7.88093
996.50000	8.82610
997.00000	9.65964
997.50000	10.34227
998.00000	10.94608
998.50000	11.63398
999.00000	12.55630
999.50000	13.80925
1000.00000	15.39482
1000.50000	17.25547
1001.00000	19.29924
1001.50000	21.45010
1002.00000	23.64265
1002.50000	25.82504
1003.00000	27.97059
1003.50000	30.09481
1004.00000	32.28063
1004.50000	34.70343
1005.00000	37.57177
1005.50000	41.05427
1006.00000	45.21058
1006.50000	49.96118
1007.00000	55.10926
1007.50000	60.44007
1008.00000	65.81657
1008.50000	71.24905
1009.00000	76.87297
1009.50000	82.88203
1010.00000	89.43456
1010.50000	96.57677
1011.00000	104.16929
1011.50000	111.98250
1012.00000	119.71830
1012.50000	127.09834
1013.00000	133.90152
1013.50000	139.98734
1014.00000	145.26935
1014.50000	149.69090
1015.00000	153.20966
1015.50000	155.78157
1016.00000	157.34319
1016.50000	157.81114
1017.00000	157.08224
1017.50000	155.06122
1018.00000	151.69560
1018.50000	147.01091
1019.00000	141.12572
1019.50000	134.22272
1020.00000	126.53857
1020.50000	118.31972
1021.00000	109.81058
1021.50000	101.23372
1022.00000	92.79213
1022.50000	84.64387
1023.00000	76.87733
1023.50000	69.54906
1024.00000	62.68085
1024.50000	56.31823
1025.00000	50.53256
1025.50000	45.39290
1026.00000	40.92311
1026.50000	37.06752
1027.00000	33.69792
1027.50000	30.67247
1028.00000	27.89098
1028.50000	25.33149
1029.00000	23.02192
1029.50000	21.00041
1030.00000	19.25996
1030.50000	17.74345
1031.00000	16.36234
1031.50000	15.03368
1032.00000	13.71892
1032.50000	12.41022
1033.00000	11.13828
1033.50000	9.95590
1034.00000	8.92522
1034.50000	8.09886
1035.00000	7.50934
1035.50000	7.14396
1036.00000	6.95075
1036.50000	6.83957
1037.00000	6.72657
1037.50000	6.55398
1038.00000	6.27073
1038.50000	5.85779
1039.00000	5.33227
1039.50000	4.75007
1040.00000	4.20026
1040.50000	3.76083
1041.00000	3.45301
1041.50000	3.21828
1042.00000	2.94781
1042.50000	2.51991
1043.00000	1.88589
1043.50000	1.13621
1044.00000	0.45480
1044.50000	0.04056
1045.00000	0.00062
1045.50000	0.32576
1046.00000	0.90716
1046.50000	1.60340
1047.00000	2.30090
1047.50000	2.94277
1048.00000	3.51314
1048.50000	4.00345
1049.00000	4.41010
1049.50000	4.71707
1050.00000	4.91098
1050.50000	5.01116
1051.00000	5.04784
1051.50000	5.03175
1052.00000	4.94415
1052.50000	4.74464
1053.00000	4.39216
1053.50000	3.84507
1054.00000	3.13373
1054.50000	2.35074
1055.00000	1.64354
1055.50000	1.15911
1056.00000	0.95400
1056.50000	0.97973
1057.00000	1.09590
1057.50000	1.17475
1058.00000	1.15639
1058.50000	1.08124
1059.00000	1.03331
1059.50000	1.07593
1060.00000	1.17924
1060.50000	1.25328
1061.00000	1.21281
1061.50000	1.04946
1062.00000	0.85213
1062.50000	0.74441
1063.00000	0.80109
1063.50000	1.00423
1064.00000	1.27266
1064.50000	1.52523
1065.00000	1.72427
1065.50000	1.88451
1066.00000	2.08825
1066.50000	2.41104
1067.00000	2.87615
1067.50000	3.45518
1068.00000	4.08466
1068.50000	4.68403
1069.00000	5.17101
1069.50000	5.49956
1070.00000	5.67736
1070.50000	5.76400
1071.00000	5.83471
1071.50000	5.94416
1072.00000	6.08735
1072.50000	6.20873
1073.00000	6.23529
1073.50000	6.16129
1074.00000	6.05615
1074.50000	6.03301
1075.00000	6.16730
1075.50000	6.47057
1076.00000	6.87809
1076.50000	7.30824
1077.00000	7.71672
1077.50000	8.14505
1078.00000	8.67632
1078.50000	9.37706
1079.00000	10.22358
1079.50000	11.11596
1080.00000	11.90501
1080.50000	12.46338
1081.00000	12.73819
1081.50000	12.78517
1082.00000	12.71833
1082.50000	12.64443
1083.00000	12.59577
1083.50000	12.51167
1084.00000	12.26827
1084.50000	11.75805
1085.00000	10.96968
1085.50000	10.02079
1086.00000	9.08597
1086.50000	8.29964
1087.00000	7.67555
1087.50000	7.10516
1088.00000	6.46144
1088.50000	5.66586
1089.00000	4.77367
1089.50000	3.94982
1090.00000	3.36426
1090.50000	3.07803
1091.00000	3.02256
1091.50000	3.05711
1092.00000	3.07011
1092.50000	3.03641
1093.00000	3.01935
1093.50000	3.10890
1094.00000	3.35269
1094.50000	3.71483
1095.00000	4.11365
1095.50000	4.47848
1096.00000	4.80560
1096.50000	5.15398
1097.00000	5.60395
1097.50000	6.19965
1098.00000	6.91470
1098.50000	7.63990
1099.00000	8.24152
1099.50000	8.62598
1100.00000	8.80759
1100.50000	8.86506
1101.00000	8.93751
1101.50000	9.12479
1102.00000	9.43375
1102.50000	9.75601
1103.00000	9.95641
1103.50000	9.94081
1104.00000	9.71097
1104.50000	9.32521
1105.00000	8.85486
1105.50000	8.32061
1106.00000	7.68747
1106.50000	6.90352
1107.00000	5.97521
1107.50000	4.98768
1108.00000	4.07266
1108.50000	3.34116
1109.00000	2.82223
1109.50000	2.47177
1110.00000	2.20824
1110.50000	1.95770
1111.00000	1.68685
1111.50000	1.42297
1112.00000	1.19998
1112.50000	1.03346
1113.00000	0.93786
1113.50000	0.92218
1114.00000	0.98430
1114.50000	1.09989
1115.00000	1.23092
1115.50000	1.33236
1116.00000	1.37130
1116.50000	1.34483
1117.00000	1.28654
1117.50000	1.24853
1118.00000	1.27192
1118.50000	1.38884
1119.00000	1.61790
1119.50000	1.97817
1120.00000	2.48439
1120.50000	3.14747
1121.00000	3.94985
1121.50000	4.85645
1122.00000	5.79709
1122.50000	6.69194
1123.00000	7.47431
1123.50000	8.13486
1124.00000	8.69403
1124.50000	9.22829
1125.00000	9.84719
1125.50000	10.63835
1126.00000	11.62104
1126.50000	12.76040
1127.00000	13.99326
1127.50000	15.26400
1128.00000	16.55089
1128.50000	17.84427
1129.00000	19.11839
1129.50000	20.31001
1130.00000	21.34326
1130.50000	22.17174
1131.00000	22.81605
1131.50000	23.35216
1132.00000	23.86753
1132.50000	24.37329
1133.00000	24.78996
1133.50000	24.97647
1134.00000	24.80223
1134.50000	24.21546
1135.00000	23.27862
1135.50000	22.12874
1136.00000	20.90256
1136.50000	19.68922
1137.00000	18.50783
1137.50000	17.34841
1138.00000	16.20750
1138.50000	15.13165
1139.00000	14.19886
1139.50000	13.48463
1140.00000	13.02100
1140.50000	12.77636
1141.00000	12.70454
1141.50000	12.79372
1142.00000	13.10102
1142.50000	13.72635
1143.00000	14.73178
1143.50000	16.07676
1144.00000	17.59424
1144.50000	19.03783
1145.00000	20.18660
1145.50000	20.95530
1146.00000	21.38911
1146.50000	21.60544
1147.00000	21.70657
1147.50000	21.72340
1148.00000	21.61553
1148.50000	21.32682
1149.00000	20.83931
1149.50000	20.18207
1150.00000	19.40042
1150.50000	18.51545
1151.00000	17.52324
1151.50000	16.39897
1152.00000	15.14854
1152.50000	13.81509
1153.00000	12.47955
1153.50000	11.21769
1154.00000	10.07431
1154.50000	9.05235
1155.00000	8.10914
1155.50000	7.20415
1156.00000	6.29007
1156.50000	5.34589
1157.00000	4.36503
1157.50000	3.39984
1158.00000	2.48514
1158.50000	1.68600
1159.00000	1.06211
1159.50000	0.68372
1160.00000	0.59436
1160.50000	0.82354
1161.00000	1.35506
1161.50000	2.11591
1162.00000	2.99614
1162.50000	3.88160
1163.00000	4.69678
1163.50000	5.41985
1164.00000	6.10612
1164.50000	6.82693
1165.00000	7.65349
1165.50000	8.62709
1166.00000	9.76813
1166.50000	11.07442
1167.00000	12.52550
1167.50000	14.08541
1168.00000	15.70334
1168.50000	17.33739
1169.00000	18.98751
1169.50000	20.72109
1170.00000	22.65313
1170.50000	24.94106
1171.00000	27.71229
1171.50000	31.03208
1172.00000	34.88062
1172.50000	39.17699
1173.00000	43.79793
1173.50000	48.61431
1174.00000	53.52065
1174.50000	58.45781
1175.00000	63.40366
1175.50000	68.37475
1176.00000	73.41135
1176.50000	78.54552
1177.00000	83.82332
1177.50000	89.29058
1178.00000	95.00793
1178.50000	101.03355
1179.00000	107.43617
1179.50000	114.23315
1180.00000	121.40255
1180.50000	128.87064
1181.00000	136.56873
1181.50000	144.43185
1182.00000	152.45522
1182.50000	160.67505
1183.00000	169.15866
1183.50000	177.94476
1184.00000	187.03368
1184.50000	196.36699
1185.00000	205.84770
1185.50000	215.36801
1186.00000	224.86342
1186.50000	234.32454
1187.00000	243.79248
1187.50000	253.33772
1188.00000	263.04279
1188.50000	272.95972
1189.00000	283.11557
1189.50000	293.50717
1190.00000	304.08438
1190.50000	314.74832
1191.00000	325.34766
1191.50000	335.63797
1192.00000	345.37744
1192.50000	354.32742
1193.00000	362.32904
1193.50000	369.30539
1194.00000	375.26282
1194.50000	380.22592
1195.00000	384.18524
1195.50000	387.05896
1196.00000	388.72488
1196.50000	389.04749
1197.00000	387.94632
1197.50000	385.43881
1198.00000	381.64246
1198.50000	376.74112
1199.00000	370.91461
1199.50000	364.28351
1200.00000	356.89209
1200.50000	348.70084
1201.00000	339.65512
1201.50000	329.74802
1202.00000	319.04504
1202.50000	307.67770
1203.00000	295.80673
1203.50000	283.56580
1204.00000	271.06433
1204.50000	258.37460
1205.00000	245.58336
1205.50000	232.79482
1206.00000	220.11404
1206.50000	207.62398
1207.00000	195.38127
1207.50000	183.43433
1208.00000	171.86397
1208.50000	160.78903
1209.00000	150.34979
1209.50000	140.63773
1210.00000	131.65630
1210.50000	123.31746
1211.00000	115.47723
1211.50000	107.98999
1212.00000	100.75170
1212.50000	93.70244
1213.00000	86.81580
1213.50000	80.09141
1214.00000	73.55104
1214.50000	67.22747
1215.00000	61.17613
1215.50000	55.43007
1216.00000	49.99037
1216.50000	44.82720
1217.00000	39.89975
1217.50000	35.20180
1218.00000	30.76456
1218.50000	26.64226
1219.00000	22.88586
1219.50000	19.50307
1220.00000	16.48212
1220.50000	13.79964
1221.00000	11.44622
1221.50000	9.41766
1222.00000	7.71233
1222.50000	6.29099
1223.00000	5.09692
1223.50000	4.05702
1224.00000	3.15610
1224.50000	2.42256
1225.00000	1.91673
1225.50000	1.67007
1226.00000	1.65802
1226.50000	1.77544
1227.00000	1.92678
1227.50000	1.97195
1228.00000	1.87898
1228.50000	1.72035
1229.00000	1.63630
1229.50000	1.75683
1230.00000	2.14792
1230.50000	2.75133
1231.00000	3.43057
1231.50000	4.03315
1232.00000	4.47310
1232.50000	4.74284
1233.00000	4.90490
1233.50000	5.00684
1234.00000	5.04697
1234.50000	4.97502
1235.00000	4.74831
1235.50000	4.38688
1236.00000	4.00589
1236.50000	3.75233
1237.00000	3.72268
1237.50000	3.90015
1238.00000	4.17333
1238.50000	4.39467
1239.00000	4.49204
1239.50000	4.46054
1240.00000	4.45517
1240.50000	4.63260
1241.00000	5.10119
1241.50000	5.88293
1242.00000	6.95078
1242.50000	8.22374
1243.00000	9.63583
1243.50000	11.09641
1244.00000	12.50749
1244.50000	13.75940
1245.00000	14.79624
1245.50000	15.60983
1246.00000	16.28787
1246.50000	16.97158
1247.00000	17.82327
1247.50000	18.95865
1248.00000	20.44012
1248.50000	22.26451
1249.00000	24.35517
1249.50000	26.59593
1250.00000	28.85629
1250.50000	31.02569
1251.00000	33.04213
1251.50000	34.89429
1252.00000	36.59657
1252.50000	38.16933
1253.00000	39.64148
1253.50000	41.03080
1254.00000	42.34896
1254.50000	43.57880
1255.00000	44.67481
1255.50000	45.54469
1256.00000	46.10435
1256.50000	46.31031
1257.00000	46.20946
1257.50000	45.90149
1258.00000	45.53989
1258.50000	45.26230
1259.00000	45.16604
1259.50000	45.26682
1260.00000	45.54472
1260.50000	45.93970
1261.00000	46.38483
1261.50000	46.82951
1262.00000	47.26002
1262.50000	47.68478
1263.00000	48.12119
1263.50000	48.57770
1264.00000	49.06269
1264.50000	49.59809
1265.00000	50.23730
1265.50000	51.04627
1266.00000	52.05668
1266.50000	53.23636
1267.00000	54.48218
1267.50000	55.66150
1268.00000	56.66936
1268.50000	57.45717
1269.00000	58.02161
1269.50000	58.36301
1270.00000	58.47154
1270.50000	58.31461
1271.00000	57.87194
1271.50000	57.13332
1272.00000	56.09596
1272.50000	54.73574
1273.00000	53.02176
1273.50000	50.94193
1274.00000	48.53701
1274.50000	45.88657
1275.00000	43.08790
1275.50000	40.21807
1276.00000	37.32644
1276.50000	34.45595
1277.00000	31.65971
1277.50000	29.00428
1278.00000	26.53342
1278.50000	24.26321
1279.00000	22.15582
1279.50000	20.16280
1280.00000	18.25656
1280.50000	16.45081
1281.00000	14.78234
1281.50000	13.28349
1282.00000	11.97046
1282.50000	10.83967
1283.00000	9.87847
1283.50000	9.05593
1284.00000	8.34066
1284.50000	7.69940
1285.00000	7.12051
1285.50000	6.60627
1286.00000	6.15976
1286.50000	5.75059
1287.00000	5.32913
1287.50000	4.83881
1288.00000	4.23277
1288.50000	3.54367
1289.00000	2.86602
1289.50000	2.31080
1290.00000	1.94543
1290.50000	1.78092
1291.00000	1.79042
1291.50000	1.97635
1292.00000	2.34660
1292.50000	2.90474
1293.00000	3.59921
1293.50000	4.32611
1294.00000	4.95086
1294.50000	5.39428
1295.00000	5.65081
1295.50000	5.78375
1296.00000	5.86840
1296.50000	5.94628
1297.00000	6.01225
1297.50000	6.02638
1298.00000	5.95018
1298.50000	5.76391
1299.00000	5.48111
1299.50000	5.12244
1300.00000	4.72003
1300.50000	4.35073
1301.00000	4.11401
1301.50000	4.11152
1302.00000	4.43742
1302.50000	5.14182
1303.00000	6.22338
1303.50000	7.61230
1304.00000	9.15495
1304.50000	10.66157
1305.00000	11.96446
1305.50000	12.97847
1306.00000	13.73017
1306.50000	14.38474
1307.00000	15.14697
1307.50000	16.18405
1308.00000	17.55977
1308.50000	19.25638
1309.00000	21.20498
1309.50000	23.35513
1310.00000	25.71098
1310.50000	28.31166
1311.00000	31.20054
1311.50000	34.35815
1312.00000	37.71755
1312.50000	41.18061
1313.00000	44.66552
1313.50000	48.11441
1314.00000	51.49337
1314.50000	54.74739
1315.00000	57.79855
1315.50000	60.49128
1316.00000	62.63499
1316.50000	64.04238
1317.00000	64.62691
1317.50000	64.41306
1318.00000	63.55243
1318.50000	62.25484
1319.00000	60.68780
1319.50000	58.90867
1320.00000	56.88527
1320.50000	54.57283
1321.00000	51.99193
1321.50000	49.27502
1322.00000	46.61109
1322.50000	44.15237
1323.00000	41.95106
1323.50000	39.93295
1324.00000	37.99622
1324.50000	36.06583
1325.00000	34.12450
1325.50000	32.16954
1326.00000	30.20098
1326.50000	28.18206
1327.00000	26.08250
1327.50000	23.89521
1328.00000	21.69585
1328.50000	19.59193
1329.00000	17.70677
1329.50000	16.11810
1330.00000	14.83061
1330.50000	13.77453
1331.00000	12.84043
1331.50000	11.91975
1332.00000	10.94515
1332.50000	9.94548
1333.00000	9.01859
1333.50000	8.28947
1334.00000	7.83732
1334.50000	7.67376
1335.00000	7.71848
1335.50000	7.83915
1336.00000	7.89385
1336.50000	7.77126
1337.00000	7.39635
1337.50000	6.75360
1338.00000	5.91556
1338.50000	5.02002
1339.00000	4.23653
1339.50000	3.70529
1340.00000	3.47996
1340.50000	3.50805
1341.00000	3.68464
1341.50000	3.89524
1342.00000	4.03476
1342.50000	4.02067
1343.00000	3.80955
1343.50000	3.37504
1344.00000	2.76938
1344.50000	2.14654
1345.00000	1.68968
1345.50000	1.50462
1346.00000	1.56072
1346.50000	1.70222
1347.00000	1.75538
1347.50000	1.63732
1348.00000	1.42164
1348.50000	1.28251
1349.00000	1.39203
1349.50000	1.79401
1350.00000	2.42838
1350.50000	3.18215
1351.00000	3.96429
1351.50000	4.74203
1352.00000	5.51720
1352.50000	6.29022
1353.00000	7.03496
1353.50000	7.70272
1354.00000	8.24258
1354.50000	8.62926
1355.00000	8.86830
1355.50000	8.95637
1356.00000	8.90656
1356.50000	8.72136
1357.00000	8.36293
1357.50000	7.78712
1358.00000	6.99553
1358.50000	6.04806
1359.00000	5.08159
1359.50000	4.24709
1360.00000	3.66908
1360.50000	3.37868
1361.00000	3.33540
1361.50000	3.44436
1362.00000	3.68552
1362.50000	4.08444
1363.00000	4.70125
1363.50000	5.54762
1364.00000	6.54572
1364.50000	7.53764
1365.00000	8.36036
1365.50000	8.93991
1366.00000	9.25407
1366.50000	9.35388
1367.00000	9.28292
1367.50000	9.04734
1368.00000	8.62202
1368.50000	8.00431
1369.00000	7.23006
1369.50000	6.39594
1370.00000	5.58326
1370.50000	4.81593
1371.00000	4.05482
1371.50000	3.24207
1372.00000	2.37382
1372.50000	1.53197
1373.00000	0.86994
1373.50000	0.53313
1374.00000	0.59781
1374.50000	1.00681
1375.00000	1.62305
1375.50000	2.27463
1376.00000	2.82231
1376.50000	3.19840
1377.00000	3.43296
1377.50000	3.61456
1378.00000	3.81067
1378.50000	4.09848
1379.00000	4.49685
1379.50000	4.98383
1380.00000	5.51620
1380.50000	6.07000
1381.00000	6.64374
1381.50000	7.25572
1382.00000	7.91134
1382.50000	8.58548
1383.00000	9.22526
1383.50000	9.78410
1384.00000	10.25553
1384.50000	10.67527
1385.00000	11.11058
1385.50000	11.60829
1386.00000	12.16749
1386.50000	12.73280
1387.00000	13.24081
1387.50000	13.63861
1388.00000	13.91035
1388.50000	14.06964
1389.00000	14.14340
1389.50000	14.13624
1390.00000	14.03860
1390.50000	13.84829
1391.00000	13.59726
1391.50000	13.35520
1392.00000	13.20824
1392.50000	13.19455
1393.00000	13.26552
1393.50000	13.27588
1394.00000	13.08374
1394.50000	12.56977
1395.00000	11.73528
1395.50000	10.69547
1396.00000	9.63581
1396.50000	8.69882
1397.00000	7.95679
1397.50000	7.39666
1398.00000	6.96544
1398.50000	6.60781
1399.00000	6.29948
1399.50000	6.03281
1400.00000	5.82042
1400.50000	5.67205
1401.00000	5.59181
1401.50000	5.56669
1402.00000	5.56860
1402.50000	5.55626
1403.00000	5.50553
1403.50000	5.41095
1404.00000	5.27892
1404.50000	5.08133
1405.00000	4.76021
1405.50000	4.25643
1406.00000	3.60582
1406.50000	2.92104
1407.00000	2.42499
1407.50000	2.31689
1408.00000	2.67236
1408.50000	3.37165
1409.00000	4.21040
1409.50000	5.01047
1410.00000	5.70680
1410.50000	6.33099
1411.00000	6.93980
1411.50000	7.53441
1412.00000	8.05216
1412.50000	8.40829
1413.00000	8.54729
1413.50000	8.47137
1414.00000	8.21874
1414.50000	7.84046
1415.00000	7.37886
1415.50000	6.86333
1416.00000	6.30410
1416.50000	5.69553
1417.00000	5.01016
1417.50000	4.26692
1418.00000	3.54995
1418.50000	2.99256
1419.00000	2.69362
1419.50000	2.65421
1420.00000	2.75607
1420.50000	2.83111
1421.00000	2.76374
1421.50000	2.55129
1422.00000	2.28004
1422.50000	2.05336
1423.00000	1.91772
1423.50000	1.85743
1424.00000	1.81031
1424.50000	1.73142
1425.00000	1.60993
1425.50000	1.49378
1426.00000	1.44164
1426.50000	1.51027
1427.00000	1.71810
1427.50000	2.05952
1428.00000	2.47004
1428.50000	2.87816
1429.00000	3.23976
1429.50000	3.59439
1430.00000	4.00457
1430.50000	4.50958
1431.00000	5.07852
1431.50000	5.64006
1432.00000	6.12321
1432.50000	6.51234
1433.00000	6.82816
1433.50000	7.09915
1434.00000	7.31864
1434.50000	7.47027
1435.00000	7.53934
1435.50000	7.55020
1436.00000	7.53658
1436.50000	7.55006
1437.00000	7.60907
1437.50000	7.73032
1438.00000	7.92813
1438.50000	8.23431
1439.00000	8.64502
1439.50000	9.09711
1440.00000	9.46276
1440.50000	9.62798
1441.00000	9.56895
1441.50000	9.35894
1442.00000	9.13751
1442.50000	9.03366
1443.00000	9.11590
1443.50000	9.34349
1444.00000	9.60007
1444.50000	9.73167
1445.00000	9.64287
1445.50000	9.33101
1446.00000	8.91167
1446.50000	8.57274
1447.00000	8.46660
1447.50000	8.60289
1448.00000	8.85484
1448.50000	9.03385
1449.00000	9.00470
1449.50000	8.75895
1450.00000	8.38853
1450.50000	7.99774
1451.00000	7.61391
1451.50000	7.17250
1452.00000	6.58923
1452.50000	5.83495
1453.00000	4.98007
1453.50000	4.13446
1454.00000	3.40194
1454.50000	2.81860
1455.00000	2.36704
1455.50000	2.00283
1456.00000	1.72940
1456.50000	1.58474
1457.00000	1.64304
1457.50000	1.93313
1458.00000	2.42575
1458.50000	3.00339
1459.00000	3.51124
1459.50000	3.81831
1460.00000	3.91163
1460.50000	3.88855
1461.00000	3.92548
1461.50000	4.18109
1462.00000	4.71198
1462.50000	5.45642
1463.00000	6.25043
1463.50000	6.88924
1464.00000	7.19432
1464.50000	7.09570
1465.00000	6.64781
1465.50000	6.02035
1466.00000	5.44081
1466.50000	5.14429
1467.00000	5.26961
1467.50000	5.81674
1468.00000	6.63231
1468.50000	7.45404
1469.00000	8.03371
1469.50000	8.18284
1470.00000	7.89644
1470.50000	7.32353
1471.00000	6.69767
1471.50000	6.23687
1472.00000	6.06705
1472.50000	6.18610
1473.00000	6.51136
1473.50000	6.93832
1474.00000	7.35638
1474.50000	7.67512
1475.00000	7.81450
1475.50000	7.73995
1476.00000	7.47834
1476.50000	7.13813
1477.00000	6.84425
1477.50000	6.69210
1478.00000	6.70941
1478.50000	6.85256
1479.00000	7.01228
1479.50000	7.06565
1480.00000	6.89481
1480.50000	6.42970
1481.00000	5.67864
1481.50000	4.73568
1482.00000	3.80867
1482.50000	3.08962
1483.00000	2.65907
1483.50000	2.45620
1484.00000	2.33233
1484.50000	2.14817
1485.00000	1.88014
1485.50000	1.64350
1486.00000	1.61156
1486.50000	1.90874
1487.00000	2.54946
1487.50000	3.45315
1488.00000	4.48914
1488.50000	5.53246
1489.00000	6.51143
1489.50000	7.40648
1490.00000	8.22344
1490.50000	8.93725
1491.00000	9.49881
1491.50000	9.84354
1492.00000	9.90267
1492.50000	9.67042
1493.00000	9.22502
1493.50000	8.68880
1494.00000	8.15929
1494.50000	7.65032
1495.00000	7.10883
1495.50000	6.47847
1496.00000	5.75972
1496.50000	5.02586
1497.00000	4.39284
1497.50000	3.97166
1498.00000	3.80603
1498.50000	3.85151
1499.00000	4.00962
1499.50000	4.18432
1500.00000	4.33357
1500.50000	4.47447
1501.00000	4.65956
1501.50000	4.90891
1502.00000	5.18199
1502.50000	5.38228
1503.00000	5.45125
1503.50000	5.42627
1504.00000	5.42065
1504.50000	5.58559
1505.00000	5.98426
1505.50000	6.55071
1506.00000	7.13757
1506.50000	7.66262
1507.00000	8.16217
1507.50000	8.76690
1508.00000	9.60098
1508.50000	10.71953
1509.00000	12.07021
1509.50000	13.55506
1510.00000	15.08943
1510.50000	16.63639
1511.00000	18.19285
1511.50000	19.78193
1512.00000	21.46266
1512.50000	23.31450
1513.00000	25.40856
1513.50000	27.74990
1514.00000	30.24529
1514.50000	32.75072
1515.00000	35.14749
1515.50000	37.46036
1516.00000	39.81750
1516.50000	42.39185
1517.00000	45.27620
1517.50000	48.47707
1518.00000	51.91872
1518.50000	55.57909
1519.00000	59.44318
1519.50000	63.61195
1520.00000	68.19382
1520.50000	73.30692
1521.00000	79.03513
1521.50000	85.45540
1522.00000	92.62399
1522.50000	100.58080
1523.00000	109.32433
1523.50000	118.89445
1524.00000	129.36729
1524.50000	140.87393
1525.00000	153.54222
1525.50000	167.43968
1526.00000	182.51247
1526.50000	198.66656
1527.00000	215.84206
1527.50000	234.12343
1528.00000	253.64603
1528.50000	274.49973
1529.00000	296.57623
1529.50000	319.56421
1530.00000	343.03192
1530.50000	366.65289
1531.00000	390.30203
1531.50000	414.09161
1532.00000	438.16681
1532.50000	462.55490
1533.00000	487.09070
1533.50000	511.46466
1534.00000	535.33948
1534.50000	558.46484
1535.00000	580.73511
1535.50000	602.21130
1536.00000	623.07953
1536.50000	643.54596
1537.00000	663.73639
1537.50000	683.57379
1538.00000	702.72583
1538.50000	720.76495
1539.00000	737.35309
1539.50000	752.37909
1540.00000	765.95996
1540.50000	778.21606
1541.00000	789.12372
1541.50000	798.45172
1542.00000	805.92365
1542.50000	811.42865
1543.00000	815.11908
1543.50000	817.31824
1544.00000	818.29767
1544.50000	818.03064
1545.00000	816.31586
1545.50000	812.85089
1546.00000	807.40302
1546.50000	799.87286
1547.00000	790.28778
1547.50000	778.73389
1548.00000	765.32660
1548.50000	750.12433
1549.00000	733.12531
1549.50000	714.24591
1550.00000	693.38428
1550.50000	670.55280
1551.00000	645.98206
1551.50000	620.08441
1552.00000	593.35571
1552.50000	566.17474
1553.00000	538.80542
1553.50000	511.41736
1554.00000	484.24017
1554.50000	457.58978
1555.00000	431.83615
1555.50000	407.23898
1556.00000	383.88593
1556.50000	361.70325
1557.00000	340.62277
1557.50000	320.56949
1558.00000	301.50470
1558.50000	283.35501
1559.00000	266.00583
1559.50000	249.29915
1560.00000	233.13589
1560.50000	217.47672
1561.00000	202.34047
1561.50000	187.80295
1562.00000	173.94200
1562.50000	160.80153
1563.00000	148.40089
1563.50000	136.70924
1564.00000	125.69644
1564.50000	115.31419
1565.00000	105.53645
1565.50000	96.34367
1566.00000	87.71239
1566.50000	79.61225
1567.00000	72.05532
1567.50000	65.10258
1568.00000	58.88367
1568.50000	53.50714
1569.00000	48.97632
1569.50000	45.16314
1570.00000	41.84223
1570.50000	38.80526
1571.00000	35.92583
1571.50000	33.17585
1572.00000	30.60141
1572.50000	28.22993
1573.00000	26.06893
1573.50000	24.10418
1574.00000	22.28650
1574.50000	20.56248
1575.00000	18.89942
1575.50000	17.30322
1576.00000	15.83871
1576.50000	14.61641
1577.00000	13.73849
1577.50000	13.24751
1578.00000	13.09251
1578.50000	13.16864
1579.00000	13.37282
1579.50000	13.65761
1580.00000	14.01106
1580.50000	14.42456
1581.00000	14.84902
1581.50000	15.23255
1582.00000	15.52917
1582.50000	15.73288
1583.00000	15.82976
1583.50000	15.80048
1584.00000	15.58340
1584.50000	15.11277
1585.00000	14.39012
1585.50000	13.52779
1586.00000	12.72555
1586.50000	12.20463
1587.00000	12.10673
1587.50000	12.41721
1588.00000	12.99847
1588.50000	13.68028
1589.00000	14.34584
1589.50000	14.98700
1590.00000	15.63892
1590.50000	16.32676
1591.00000	17.02812
1591.50000	17.68319
1592.00000	18.22137
1592.50000	18.62802
1593.00000	18.92080
1593.50000	19.11971
1594.00000	19.18390
1594.50000	19.03691
1595.00000	18.60007
1595.50000	17.86009
1596.00000	16.87327
1596.50000	15.76608
1597.00000	14.68841
1597.50000	13.75871
1598.00000	12.99755
1598.50000	12.32223
1599.00000	11.58830
1599.50000	10.66933
1600.00000	9.51594
1600.50000	8.22603
1601.00000	7.00422
1601.50000	6.03255
1602.00000	5.34925
1602.50000	4.84126
1603.00000	4.32831
1603.50000	3.68478
1604.00000	2.93663
1604.50000	2.24700
1605.00000	1.78016
1605.50000	1.57835
1606.00000	1.53525
1606.50000	1.49045
1607.00000	1.35862
1607.50000	1.16718
1608.00000	1.01854
1608.50000	0.98915
1609.00000	1.06568
1609.50000	1.17812
1610.00000	1.26707
1610.50000	1.36730
1611.00000	1.57370
1611.50000	1.97751
1612.00000	2.55262
1612.50000	3.21763
1613.00000	3.84613
1613.50000	4.36145
1614.00000	4.73954
1614.50000	5.02360
1615.00000	5.26959
1615.50000	5.54000
1616.00000	5.89051
1616.50000	6.35358
1617.00000	6.91724
1617.50000	7.50170
1618.00000	8.00635
1618.50000	8.34929
1619.00000	8.50573
1619.50000	8.45361
1620.00000	8.19159
1620.50000	7.69635
1621.00000	6.98438
1621.50000	6.17384
1622.00000	5.45834
1622.50000	5.02607
1623.00000	4.93458
1623.50000	5.10999
1624.00000	5.37118
1624.50000	5.57020
1625.00000	5.64971
1625.50000	5.65243
1626.00000	5.61047
1626.50000	5.52415
1627.00000	5.33645
1627.50000	5.04437
1628.00000	4.73947
1628.50000	4.56779
1629.00000	4.64286
1629.50000	4.94508
1630.00000	5.33413
1630.50000	5.63370
1631.00000	5.73793
1631.50000	5.65879
1632.00000	5.51643
1632.50000	5.45465
1633.00000	5.58812
1633.50000	5.96019
1634.00000	6.53136
1634.50000	7.21818
1635.00000	7.89844
1635.50000	8.46785
1636.00000	8.81068
1636.50000	8.87587
1637.00000	8.67418
1637.50000	8.24900
1638.00000	7.63875
1638.50000	6.86235
1639.00000	5.92587
1639.50000	4.90615
1640.00000	3.95409
1640.50000	3.23114
1641.00000	2.81658
1641.50000	2.67128
1642.00000	2.67663
1642.50000	2.71496
1643.00000	2.73850
1643.50000	2.75174
1644.00000	2.77936
1644.50000	2.81870
1645.00000	2.86405
1645.50000	2.94624
1646.00000	3.15077
1646.50000	3.55090
1647.00000	4.15881
1647.50000	4.89749
1648.00000	5.63790
1648.50000	6.31376
1649.00000	6.95007
1649.50000	7.59022
1650.00000	8.23577
1650.50000	8.82145
1651.00000	9.27952
1651.50000	9.62139
1652.00000	9.92202
1652.50000	10.24243
1653.00000	10.54842
1653.50000	10.71921
1654.00000	10.61084
1654.50000	10.15396
1655.00000	9.39534
1655.50000	8.45143
1656.00000	7.47514
1656.50000	6.60962
1657.00000	6.00051
1657.50000	5.76207
1658.00000	5.92964
1658.50000	6.42170
1659.00000	7.08513
1659.50000	7.74033
1660.00000	8.29656
1660.50000	8.77543
1661.00000	9.24739
1661.50000	9.70594
1662.00000	10.04779
1662.50000	10.11302
1663.00000	9.80429
1663.50000	9.17993
1664.00000	8.41364
1664.50000	7.68710
1665.00000	7.10189
1665.50000	6.64293
1666.00000	6.22269
1666.50000	5.77026
1667.00000	5.29754
1667.50000	4.88853
1668.00000	4.67020
1668.50000	4.71241
1669.00000	5.01033
1669.50000	5.49400
1670.00000	6.07601
1670.50000	6.68329
1671.00000	7.28752
1671.50000	7.88410
1672.00000	8.47794
1672.50000	9.04762
1673.00000	9.54907
1673.50000	9.92724
1674.00000	10.14455
1674.50000	10.19562
1675.00000	10.12930
1675.50000	10.02799
1676.00000	9.94540
1676.50000	9.88583
1677.00000	9.81049
1677.50000	9.66050
1678.00000	9.40864
1678.50000	9.11088
1679.00000	8.86166
1679.50000	8.72436
1680.00000	8.67551
1680.50000	8.58692
1681.00000	8.31918
1681.50000	7.79350
1682.00000	7.02639
1682.50000	6.11136
1683.00000	5.19705
1683.50000	4.40942
1684.00000	3.82874
1684.50000	3.48080
1685.00000	3.36674
1685.50000	3.45054
1686.00000	3.67737
1686.50000	3.98771
1687.00000	4.33072
1687.50000	4.67501
1688.00000	5.01255
1688.50000	5.38065
1689.00000	5.84985
1689.50000	6.50600
1690.00000	7.41479
1690.50000	8.56829
1691.00000	9.83228
1691.50000	10.99347
1692.00000	11.85474
1692.50000	12.30151
1693.00000	12.32359
1693.50000	11.99303
1694.00000	11.40721
1694.50000	10.66522
1695.00000	9.85721
1695.50000	9.04165
1696.00000	8.24169
1696.50000	7.43673
1697.00000	6.58927
1697.50000	5.66277
1698.00000	4.66966
1698.50000	3.67296
1699.00000	2.74518
1699.50000	1.92824
1700.00000	1.22406
1700.50000	0.64513
1701.00000	0.25053
1701.50000	0.13743
1702.00000	0.39522
1702.50000	0.99264
1703.00000	1.78212
1703.50000	2.56295
1704.00000	3.18537
1704.50000	3.58183
1705.00000	3.79834
1705.50000	3.93301
1706.00000	4.07056
1706.50000	4.23042
1707.00000	4.38513
1707.50000	4.47291
1708.00000	4.44529
1708.50000	4.28862
1709.00000	4.06696
1709.50000	3.91034
1710.00000	3.99397
1710.50000	4.40284
1711.00000	5.08253
1711.50000	5.82738
1712.00000	6.39634
1712.50000	6.63413
1713.00000	6.62732
1713.50000	6.59686
1714.00000	6.75239
1714.50000	7.11388
1715.00000	7.54674
1715.50000	7.84689
1716.00000	7.89779
1716.50000	7.71400
1717.00000	7.39649
1717.50000	7.00620
1718.00000	6.53474
1718.50000	5.95180
1719.00000	5.29528
1719.50000	4.67656
1720.00000	4.25139
1720.50000	4.12330
1721.00000	4.30005
1721.50000	4.70620
1722.00000	5.23035
1722.50000	5.71453
1723.00000	6.02640
1723.50000	6.04921
1724.00000	5.75169
1724.50000	5.75169
1725.00000	5.75169
1725.50000	5.75169
1726.00000	5.75169
1726.50000	5.75169
1727.00000	5.75169
1727.50000	5.75169
1728.00000	5.75169
1728.50000	5.75169
1729.00000	5.75169
1729.50000	5.75169
1730.00000	5.75169
