AU_030_A1 + buffer time 0 hrs,,au-030-a1 + buffer 4 hrs1,,AU-030-A1+buffer 23 hrs,,AU+030_A1 + buffer time 48 hrs,,AU+030_A1 + buffer time 48 hrs1,,
Wavelength (nm),Abs,Wavelength (nm),Abs,Wavelength (nm),Abs,Wavelength (nm),Abs,Wavelength (nm),Abs,
650,0.01443319302,650,0.0134720495,650,0.02340709791,650,0.02747195959,650,0.02940926328,
649.333313,0.01443391573,649.333313,0.01343320031,649.333313,0.02336317115,649.333313,0.02742632292,649.333313,0.02938649617,
648.666687,0.01438901387,648.666687,0.01343771257,648.666687,0.02338130958,648.666687,0.0273943115,648.666687,0.02935467102,
648,0.0143541228,648,0.01344604325,648,0.02335000411,648,0.02743296884,648,0.02939150855,
647.333313,0.01431275997,647.333313,0.01344438735,647.333313,0.0233380124,647.333313,0.0273671262,647.333313,0.02935348079,
646.666687,0.01437509991,646.666687,0.01345763076,646.666687,0.02336155996,646.666687,0.02743015625,646.666687,0.02935101464,
646,0.01435877848,646,0.01348433271,646,0.0233356636,646,0.02741281129,646,0.02933780476,
645.333313,0.01436966844,645.333313,0.01345576253,645.333313,0.02329906449,645.333313,0.02742025629,645.333313,0.02931606397,
644.666687,0.01434756722,644.666687,0.01344996784,644.666687,0.02327060513,644.666687,0.0273815468,644.666687,0.0292641148,
644,0.01432067901,644,0.01346540079,644,0.0232992284,644,0.02736467309,644,0.02925713733,
643.333313,0.0143525973,643.333313,0.0133617064,643.333313,0.02321718819,643.333313,0.02737225406,643.333313,0.02925301157,
642.666687,0.01428517886,642.666687,0.01334064454,642.666687,0.02322150208,642.666687,0.02730716765,642.666687,0.02919074148,
642,0.01433670521,642,0.01338295545,642,0.02323239855,642,0.02721100114,642,0.02910921536,
641.333313,0.01435679849,641.333313,0.01336843334,641.333313,0.02322352305,641.333313,0.0272595901,641.333313,0.02910013497,
640.666687,0.01432680618,640.666687,0.01333527919,640.666687,0.02322715521,640.666687,0.02717966586,640.666687,0.02904367261,
640,0.01425805315,640,0.01333864219,640,0.02319938317,640,0.02721273713,640,0.02908405289,
639.333313,0.01433089934,639.333313,0.01333669387,639.333313,0.02315127291,639.333313,0.02722850069,639.333313,0.02909349278,
638.666687,0.01433295943,638.666687,0.01321627107,638.666687,0.02312593535,638.666687,0.02723974548,638.666687,0.02910143696,
638,0.01430018619,638,0.01318051293,638,0.02317259647,638,0.027141748,638,0.02893945575,
637.333313,0.01432273909,637.333313,0.0132255042,637.333313,0.0231376756,637.333313,0.02710369602,637.333313,0.02892689407,
636.666687,0.01431773603,636.666687,0.01325539406,636.666687,0.02313202433,636.666687,0.02704578266,636.666687,0.0288767051,
636,0.01426252071,636,0.0132329762,636,0.02316197567,636,0.02707498707,636,0.0289286375,
635.333313,0.01425746456,635.333313,0.01316378266,635.333313,0.02319179289,635.333313,0.02706413157,635.333313,0.02889571153,
634.666687,0.01426741574,634.666687,0.01302430872,634.666687,0.02309140004,634.666687,0.02691513672,634.666687,0.02876345627,
634,0.01429242827,634,0.01304484811,634,0.02308217436,634,0.0268774908,634,0.02870236337,
633.333313,0.01424122788,633.333313,0.01302972343,633.333313,0.02310060151,633.333313,0.0269225724,633.333313,0.02873336524,
632.666687,0.01426003221,632.666687,0.01307179127,632.666687,0.02309740707,632.666687,0.02689393051,632.666687,0.02867504209,
632,0.01424288657,632,0.01305314433,632,0.0230680611,632,0.02684449963,632,0.02866586111,
631.333313,0.01422020327,631.333313,0.01309107896,631.333313,0.02305192687,631.333313,0.02700236812,631.333313,0.0287410263,
630.666687,0.01419463381,630.666687,0.01307600643,630.666687,0.02302149124,630.666687,0.02691018023,630.666687,0.02870783955,
630,0.01417612564,630,0.01304772962,630,0.02304417454,630,0.02680776827,630,0.0286037866,
629.333313,0.01419671997,629.333313,0.01301638689,629.333313,0.02299815603,629.333313,0.02677739784,629.333313,0.02857116237,
628.666687,0.01419516839,628.666687,0.0130627742,628.666687,0.02300637029,628.666687,0.02682054415,628.666687,0.02856839821,
628,0.01420321967,628,0.01303636562,628,0.0230158139,628,0.02678733878,628,0.02855803072,
627.333313,0.0142132761,627.333313,0.0130579723,627.333313,0.02295085788,627.333313,0.02673822269,627.333313,0.02852054499,
626.666687,0.01415941026,626.666687,0.01302350871,626.666687,0.0229704529,626.666687,0.02674364485,626.666687,0.02854003385,
626,0.01416647062,626,0.0130477827,626,0.02297064476,626,0.02671151981,626,0.02855322137,
625.333313,0.01422071178,625.333313,0.01305362489,625.333313,0.02299588919,625.333313,0.02670827135,625.333313,0.02854639292,
624.666687,0.01417061687,624.666687,0.01302513573,624.666687,0.02294878475,624.666687,0.02669095621,624.666687,0.02851670235,
624,0.0141737191,624,0.01304348744,624,0.02293519303,624,0.02673893794,624,0.02852123603,
623.333313,0.01415192243,623.333313,0.01302220114,623.333313,0.02292755246,623.333313,0.02671234496,623.333313,0.02853931487,
622.666687,0.01419179887,622.666687,0.01301094517,622.666687,0.02288252674,622.666687,0.02671867609,622.666687,0.02849641442,
622,0.0141293779,622,0.01301572006,622,0.02290632203,622,0.02677549981,622,0.0285790693,
621.333313,0.01413849741,621.333313,0.01305173058,621.333313,0.02288430184,621.333313,0.0266730357,621.333313,0.02847004496,
620.666687,0.01417716872,620.666687,0.01302614901,620.666687,0.02290574834,620.666687,0.0267282296,620.666687,0.02851164527,
620,0.01419843175,620,0.01303079072,620,0.02288438194,620,0.02671171166,620,0.02854763716,
619.333313,0.01418118086,619.333313,0.01300635748,619.333313,0.02288217284,619.333313,0.02674067207,619.333313,0.02852391824,
618.666687,0.014148633,618.666687,0.01305954624,618.666687,0.02286686562,618.666687,0.02674626,618.666687,0.02856917307,
618,0.01417227462,618,0.01306810975,618,0.02287829854,618,0.02674287371,618,0.02854431979,
617.333313,0.01410531159,617.333313,0.01302433573,617.333313,0.02286473662,617.333313,0.02675732784,617.333313,0.0285724625,
616.666687,0.01416088175,616.666687,0.0130657088,616.666687,0.02287974395,616.666687,0.02672619186,616.666687,0.02854534239,
616,0.01416176371,616,0.01307296474,616,0.022834206,616,0.02680162713,616,0.02857442573,
615.333313,0.01412459183,615.333313,0.01302150823,615.333313,0.02285758778,615.333313,0.02673541382,615.333313,0.02854830027,
614.666687,0.01412114222,614.666687,0.01304172724,614.666687,0.02282381058,614.666687,0.02687046677,614.666687,0.02865051478,
614,0.01411627512,614,0.01300518401,614,0.02284394577,614,0.02681404538,614,0.02863942645,
613.333313,0.01414052956,613.333313,0.01301099826,613.333313,0.0228328146,613.333313,0.02671966702,613.333313,0.02854000591,
612.666687,0.01411015168,612.666687,0.0130337514,612.666687,0.02285180427,612.666687,0.02672977,612.666687,0.02858902328,
612,0.01406953391,612,0.01302065421,612,0.02286110818,612,0.02673836052,612,0.02861269005,
611.333313,0.01408651285,611.333313,0.01303785946,611.333313,0.02285194024,611.333313,0.02672888897,611.333313,0.02862847783,
610.666687,0.01407707389,610.666687,0.01301246602,610.666687,0.02281529829,610.666687,0.02672151104,610.666687,0.02863265201,
610,0.01405319665,610,0.01299736835,610,0.02282400243,610,0.02674628794,610,0.02864114009,
609.333313,0.01406071056,609.333313,0.01298397966,609.333313,0.02281008847,609.333313,0.02670906857,609.333313,0.02864752896,
608.666687,0.01406720746,608.666687,0.01297408435,608.666687,0.02280733176,608.666687,0.02670975775,608.666687,0.0286271777,
608,0.01406843774,608,0.01306498889,608,0.02285745181,608,0.02673734166,608,0.02873380855,
607.333313,0.01409416087,607.333313,0.01303889975,607.333313,0.02283679694,607.333313,0.02668726817,607.333313,0.02867974341,
606.666687,0.01409496274,606.666687,0.01299376786,606.666687,0.02283895388,606.666687,0.02671330795,606.666687,0.02870797738,
606,0.01410215627,606,0.01300843805,606,0.02284983918,606,0.02672880702,606,0.02870388515,
605.333313,0.0140593471,605.333313,0.01302598882,605.333313,0.02282132767,605.333313,0.02665908076,605.333313,0.02865706757,
604.666687,0.01403552387,604.666687,0.01300414372,604.666687,0.02286861092,604.666687,0.02667532116,604.666687,0.02864487283,
604,0.01406985521,604,0.0129988892,604,0.02289063111,604,0.02664520964,604,0.02859947272,
603.333313,0.01404231507,603.333313,0.0130161196,603.333313,0.02287717909,603.333313,0.02667262405,603.333313,0.0286823418,
602.666687,0.01410100609,602.666687,0.01300187688,602.666687,0.0228664279,602.666687,0.02664306201,602.666687,0.02863345481,
602,0.01401108783,602,0.0129746981,602,0.02283701673,602,0.02663271315,602,0.02856132016,
601.333313,0.01406079065,601.333313,0.0129863536,601.333313,0.02286121808,601.333313,0.02661628276,601.333313,0.02856776305,
600.666687,0.01401325315,600.666687,0.01301091816,600.666687,0.0228802897,600.666687,0.02662068605,600.666687,0.02856950462,
600,0.01405509561,600,0.01301972102,600,0.02291240729,600,0.02662635595,600,0.02856121026,
599.333313,0.01400830783,599.333313,0.01301427931,599.333313,0.02284250036,599.333313,0.0266121272,599.333313,0.02859015577,
598.666687,0.01399480645,598.666687,0.01301836036,598.666687,0.02289840765,598.666687,0.0265795961,598.666687,0.02856419608,
598,0.01397152245,598,0.01301081199,598,0.02281715348,598,0.02668294497,598,0.02857320942,
597.333313,0.01396874245,597.333313,0.01302948315,597.333313,0.02285652421,597.333313,0.02664050274,597.333313,0.02856422402,
596.666687,0.01405656617,596.666687,0.01302006748,596.666687,0.02282372862,596.666687,0.02662453987,596.666687,0.02852565981,
596,0.01400723774,596,0.01302889641,596,0.0228311494,596,0.0266163107,596,0.02854072489,
595.333313,0.01397478394,595.333313,0.01301099826,595.333313,0.02280825935,595.333313,0.02663731016,595.333313,0.02852784283,
594.666687,0.01393607631,594.666687,0.01305509172,594.666687,0.02278722636,594.666687,0.02659478784,594.666687,0.02847034857,
594,0.01399077009,594,0.01302273478,594,0.0227668751,594,0.02657654136,594,0.0284957774,
593.333313,0.01393506117,593.333313,0.01304570213,593.333313,0.02276103757,593.333313,0.02661397122,593.333313,0.02851181105,
592.666687,0.01398641244,592.666687,0.0130404206,592.666687,0.02276594751,592.666687,0.02658554167,592.666687,0.02844071947,
592,0.01394709013,592,0.0130162267,592,0.02277724259,592,0.02657995559,592,0.02845788375,
591.333313,0.01395139378,591.333313,0.01306138746,591.333313,0.02277039364,591.333313,0.02650249377,591.333313,0.02834062651,
590.666687,0.01397710945,590.666687,0.01306989696,590.666687,0.02281196974,590.666687,0.02642339468,590.666687,0.02823472768,
590,0.0140349362,590,0.01305933297,590,0.02276466601,590,0.02641104348,590,0.02824602649,
589.333313,0.01396192517,589.333313,0.01308347564,589.333313,0.02276300266,589.333313,0.02646138892,589.333313,0.02819762938,
588.666687,0.01397569291,588.666687,0.01308526285,588.666687,0.02279685624,588.666687,0.02642136067,588.666687,0.02815912478,
588,0.01394380163,588,0.01303983293,588,0.02280651405,588,0.02646821178,588,0.02818445303,
587.333313,0.01395788882,587.333313,0.0130570922,587.333313,0.02279123664,587.333313,0.02638050914,587.333313,0.02808936313,
586.666687,0.01395914517,586.666687,0.01304516848,586.666687,0.02275124565,586.666687,0.02633276023,586.666687,0.02803938277,
586,0.01391119137,586,0.01307128463,586,0.02274177969,586,0.02644322999,586,0.02806271426,
585.333313,0.0138955554,585.333313,0.013005157,585.333313,0.02268823609,585.333313,0.02638257295,585.333313,0.02808723599,
584.666687,0.01396973152,584.666687,0.01308625005,584.666687,0.02270705625,584.666687,0.02638969757,584.666687,0.02800889872,
584,0.01396941021,584,0.0130438609,584,0.02271963097,584,0.0263665095,584,0.02794473618,
583.333313,0.01395973377,583.333313,0.01305031683,583.333313,0.02270182036,583.333313,0.02638876252,583.333313,0.02789841592,
582.666687,0.01394067425,582.666687,0.01307934057,582.666687,0.02268570103,582.666687,0.0263161473,582.666687,0.02787128277,
582,0.01390990894,582,0.01305874623,582,0.02265409008,582,0.02641772851,582,0.0278854426,
581.333313,0.0139212152,581.333313,0.01300294325,581.333313,0.02269966528,581.333313,0.02634835616,581.333313,0.02782538347,
580.666687,0.01392134838,580.666687,0.013043941,580.666687,0.02263363637,580.666687,0.02636194229,580.666687,0.02785877883,
580,0.01393022295,580,0.01307960786,580,0.02263895422,580,0.02640532143,580,0.02786300145,
579.333313,0.0139529435,579.333313,0.01306312159,579.333313,0.02261124924,579.333313,0.02635924704,579.333313,0.0278248582,
578.666687,0.01392313931,578.666687,0.01306933723,578.666687,0.02258196287,578.666687,0.02629466914,578.666687,0.02772592939,
578,0.01391033642,578,0.01309700124,578,0.02258275263,578,0.02625690959,578,0.02766136639,
577.333313,0.01394086145,577.333313,0.01304258127,577.333313,0.02260811254,577.333313,0.0262035653,577.333313,0.02760406956,
576.666687,0.01391891669,576.666687,0.01305135712,576.666687,0.02254256234,576.666687,0.02620642446,576.666687,0.02763383463,
576,0.01390977483,576,0.01307533961,576,0.02257743478,576,0.02634073608,576,0.02773412317,
575.333313,0.01391533483,575.333313,0.01305239741,575.333313,0.02254926972,575.333313,0.0262718983,575.333313,0.02765438706,
574.666687,0.01394492481,574.666687,0.01307795383,574.666687,0.02262414619,574.666687,0.02623785473,574.666687,0.02756619826,
574,0.01392538473,574,0.01311359555,574,0.02263971791,574,0.02620194294,574,0.02754487656,
573.333313,0.01392022613,573.333313,0.01303047035,573.333313,0.02256252058,573.333313,0.02635223418,573.333313,0.02768741176,
572.666687,0.01390613988,572.666687,0.01309809554,572.666687,0.0226257015,572.666687,0.02624123544,572.666687,0.0275309775,
572,0.01390076801,572,0.01305751875,572,0.02261348441,572,0.02623711154,572,0.02748549916,
571.333313,0.01394037995,571.333313,0.01303521823,571.333313,0.02263197303,571.333313,0.02622278593,571.333313,0.02753787115,
570.666687,0.01391084399,570.666687,0.0130649088,570.666687,0.02262275666,570.666687,0.02620793693,570.666687,0.02745844796,
570,0.01386417914,570,0.01307216473,570,0.0225658752,570,0.02624269389,570,0.02747176588,
569.333313,0.01390023343,569.333313,0.01303508505,569.333313,0.02274292521,569.333313,0.02628086321,569.333313,0.02744962275,
568.666687,0.01387243718,568.666687,0.01302705612,568.666687,0.02271332964,568.666687,0.02624888159,568.666687,0.02740056999,
568,0.01383234933,568,0.01299208775,568,0.02275648154,568,0.02626705728,568,0.0274310112,
567.333313,0.01382721867,567.333313,0.01305421162,567.333313,0.022702666,567.333313,0.0261184182,567.333313,0.02728687972,
566.666687,0.01384357363,566.666687,0.01309195906,566.666687,0.02268417366,566.666687,0.02609263361,566.666687,0.02725399658,
566,0.01385127008,566,0.01302798931,566,0.02273416892,566,0.02604263462,566,0.02719008364,
565.333313,0.01392471697,565.333313,0.01306573581,565.333313,0.02270070091,565.333313,0.02605192363,565.333313,0.02718622424,
564.666687,0.01384250447,564.666687,0.01302841678,564.666687,0.02271758392,564.666687,0.02597933821,564.666687,0.02718539722,
564,0.01386837475,564,0.01300224941,564,0.02267225459,564,0.02598637529,564,0.0271238368,
563.333313,0.01388136391,563.333313,0.01300585084,563.333313,0.02270893753,563.333313,0.02597535402,563.333313,0.02711915411,
562.666687,0.01386115886,562.666687,0.01303014997,562.666687,0.02266619913,562.666687,0.02598175779,562.666687,0.02715886012,
562,0.01389865577,562,0.01305853296,562,0.02268509939,562,0.02597027086,562,0.02713700943,
561.333313,0.01383609138,561.333313,0.0130562922,561.333313,0.02259862237,561.333313,0.02593674511,561.333313,0.02712364495,
560.666687,0.01393589005,560.666687,0.01305855997,560.666687,0.02264132723,560.666687,0.02595603466,560.666687,0.02714188583,
560,0.01388499886,560,0.0130733382,560,0.02262275666,560,0.02597606927,560,0.02710824274,
559.333313,0.01386131905,559.333313,0.01299451478,559.333313,0.02265728079,559.333313,0.02599547058,559.333313,0.02717412636,
558.666687,0.01382727176,558.666687,0.01299880911,558.666687,0.02266990952,558.666687,0.02591138147,558.666687,0.02711700462,
558,0.01385271363,558,0.01304279454,558,0.02264400013,558,0.02590033598,558,0.02712339722,
557.333313,0.01392041333,557.333313,0.01300753094,557.333313,0.02265400812,557.333313,0.02589797415,557.333313,0.02704385482,
556.666687,0.0138673326,556.666687,0.01305517182,556.666687,0.02260972187,556.666687,0.02592841908,556.666687,0.02705198154,
556,0.01390865259,556,0.01302222814,556,0.02261743881,556,0.02586458996,556,0.02706391178,
555.333313,0.01391878258,555.333313,0.01301433239,555.333313,0.02265016362,555.333313,0.02590047382,555.333313,0.0270703584,
554.666687,0.01391464006,554.666687,0.01300651766,554.666687,0.02268949151,554.666687,0.02582615614,554.666687,0.02700892463,
554,0.0138352355,554,0.01299862284,554,0.02266857214,554,0.02585483715,554,0.0270727817,
553.333313,0.01387655269,553.333313,0.01305135712,553.333313,0.0227053389,553.333313,0.02585027739,553.333313,0.02699994296,
552.666687,0.01386062428,552.666687,0.01303817984,552.666687,0.02270678431,552.666687,0.02582140267,552.666687,0.02701691352,
552,0.0138580855,552,0.01303065754,552,0.02267034538,552,0.0258017052,552,0.02697212249,
551.333313,0.01396735199,551.333313,0.01309937611,551.333313,0.02267394587,551.333313,0.02579906955,551.333313,0.02701104432,
550.666687,0.013869524,550.666687,0.01300998498,550.666687,0.02267386392,550.666687,0.02580338158,550.666687,0.02698418684,
550,0.01391466614,550,0.01305821259,550,0.02268144488,550,0.02582008392,550,0.02699123882,
549.333313,0.01390966866,549.333313,0.01300697122,549.333313,0.02262591943,549.333313,0.02575632744,549.333313,0.02690062299,
548.666687,0.01384474989,548.666687,0.01305282395,548.666687,0.02265193686,548.666687,0.0257933829,548.666687,0.02696581557,
548,0.01391060371,548,0.0130742453,548,0.02257899009,548,0.02583810687,548,0.02691568807,
547.333313,0.01385017484,547.333313,0.01312368084,547.333313,0.02257885411,547.333313,0.02580082789,547.333313,0.02691155672,
546.666687,0.0138931768,546.666687,0.0131112216,546.666687,0.0226125028,546.666687,0.02582588047,546.666687,0.02689481154,
546,0.01383071952,546,0.01304028649,546,0.0226300098,546,0.02580483817,546,0.02693094499,
545.333313,0.01384766307,545.333313,0.01307403203,545.333313,0.02262049355,545.333313,0.02577808127,545.333313,0.02685457841,
544.666687,0.01392501034,544.666687,0.01306813676,544.666687,0.02267994545,544.666687,0.02581137605,544.666687,0.02688093297,
544,0.01391701866,544,0.01308363583,544,0.02258040756,544,0.0258012116,544,0.02683819458,
543.333313,0.01394770481,543.333313,0.01306477468,543.333313,0.02268302813,543.333313,0.0258089304,543.333313,0.02684590407,
542.666687,0.01393864304,542.666687,0.01311476994,542.666687,0.0226112213,542.666687,0.02578316443,542.666687,0.02683053911,
542,0.01390285231,542,0.01314401161,542,0.02263778262,542,0.0257777255,542,0.026854055,
541.333313,0.01389210764,541.333313,0.01309500076,541.333313,0.02261820249,541.333313,0.02579472773,541.333313,0.02683026344,
540.666687,0.01388898119,540.666687,0.01306461543,540.666687,0.02260767668,540.666687,0.02574715391,540.666687,0.02682398632,
540,0.01390793081,540,0.01301876083,540,0.02260723896,540,0.02578519657,540,0.02677789517,
539.333313,0.01379579306,539.333313,0.01307659317,539.333313,0.02264252678,539.333313,0.02575344406,539.333313,0.0267622564,
538.666687,0.01388112362,538.666687,0.01304186042,538.666687,0.02262131125,538.666687,0.02575984225,538.666687,0.02675350197,
538,0.01388013456,538,0.013071578,538,0.02260535769,538,0.02573001385,538,0.0267402865,
537.333313,0.01393484697,537.333313,0.0130742453,537.333313,0.02264230885,537.333313,0.02574042417,537.333313,0.02671796083,
536.666687,0.0138766868,536.666687,0.01307224482,536.666687,0.02262322046,536.666687,0.02573520504,536.666687,0.02668930404,
536,0.01391512062,536,0.01303895283,536,0.02256137505,536,0.0257816799,536,0.02665294334,
535.333313,0.01388678886,535.333313,0.01305314433,535.333313,0.02256770059,535.333313,0.02581420541,535.333313,0.02673117444,
534.666687,0.01389758755,534.666687,0.01301315892,534.666687,0.02255439572,534.666687,0.02576234192,534.666687,0.026654182,
534,0.01389395259,534,0.01306280121,534,0.0225360468,534,0.0257412754,534,0.0266776327,
533.333313,0.01390114147,533.333313,0.01307627279,533.333313,0.02252383158,533.333313,0.02569340356,533.333313,0.02661683224,
532.666687,0.01385950204,532.666687,0.01312909741,532.666687,0.02256963775,532.666687,0.02568315901,532.666687,0.02655642666,
532,0.01388676278,532,0.01306069363,532,0.02255679481,532,0.02570691518,532,0.02662748471,
531.333313,0.01382561494,531.333313,0.01304226089,531.333313,0.02254087105,531.333313,0.0256435331,531.333313,0.02654239163,
530.666687,0.01388080232,530.666687,0.01304276753,530.666687,0.02253359184,530.666687,0.02560937218,530.666687,0.02654054761,
530,0.01388326101,530,0.0130636543,530,0.02247121558,530,0.02563908324,530,0.02652915567,
529.333313,0.01387968007,529.333313,0.01304148696,529.333313,0.02251682431,529.333313,0.02566734143,529.333313,0.02650249377,
528.666687,0.01386035699,528.666687,0.01308350265,528.666687,0.02246974409,528.666687,0.02567038871,528.666687,0.02654588595,
528,0.01388085634,528,0.01315182913,528,0.02246434614,528,0.02558235452,528,0.02644622885,
527.333313,0.01389924437,527.333313,0.01315166894,527.333313,0.02244251035,527.333313,0.02564545535,527.333313,0.02647927217,
526.666687,0.01389429998,526.666687,0.01308008749,526.666687,0.02243637852,526.666687,0.02564957365,526.666687,0.02646741271,
526,0.01388331503,526,0.0131102344,526,0.02239173092,526,0.0256237071,526,0.02643720619,
525.333313,0.01395013742,525.333313,0.01304140687,525.333313,0.02239336632,525.333313,0.02562648058,525.333313,0.0264122542,
524.666687,0.01396061573,524.666687,0.01311613061,524.666687,0.02236853726,524.666687,0.02566006407,524.666687,0.02641530707,
524,0.01392570604,524,0.0131093543,524,0.02235338278,524,0.0256712418,524,0.02642873302,
523.333313,0.0139728589,523.333313,0.01311922539,523.333313,0.02228877135,523.333313,0.02567862906,523.333313,0.02638447098,
522.666687,0.01395938639,522.666687,0.01313902251,522.666687,0.02230956219,522.666687,0.02565995418,522.666687,0.02640994266,
522,0.01398117281,522,0.01306474861,522,0.02230776474,522,0.02568000183,522,0.02638570964,
521.333313,0.01397922169,521.333313,0.01300891768,521.333313,0.02234896831,521.333313,0.02564457618,521.333313,0.02635182068,
520.666687,0.01392915379,520.666687,0.01311487611,520.666687,0.02229089662,520.666687,0.025655834,520.666687,0.02640092,
520,0.01393490098,520,0.01312386803,520,0.02230217867,520,0.02568793856,520,0.02641918696,
519.333313,0.01400226541,519.333313,0.01312018558,519.333313,0.02242299356,519.333313,0.02572325803,519.333313,0.02642730251,
518.666687,0.01399023551,518.666687,0.01310956758,518.666687,0.0223240871,518.666687,0.02581074461,518.666687,0.02649729326,
518,0.01392990258,518,0.01310996711,518,0.02232776582,518,0.02580530383,518,0.02646479942,
517.333313,0.01396529377,517.333313,0.01311554387,517.333313,0.02225067839,517.333313,0.02577898838,517.333313,0.02645602264,
516.666687,0.01389895007,516.666687,0.01308131497,516.666687,0.0222646296,516.666687,0.02571625449,516.666687,0.02652816474,
516,0.01394548547,516,0.01311717089,516,0.02224980667,516,0.02568258345,516,0.02643497661,
515.333313,0.01389560942,515.333313,0.01311762445,515.333313,0.02221670374,515.333313,0.0256932117,515.333313,0.02638535202,
514.666687,0.01391228754,514.666687,0.01311348937,514.666687,0.02221038193,514.666687,0.02566907182,514.666687,0.02629824355,
514,0.01391381118,514,0.01309147943,514,0.02218948677,514,0.02561365627,514,0.02626246586,
513.333313,0.01391736604,513.333313,0.01315967366,513.333313,0.02219231986,513.333313,0.02568659186,513.333313,0.02630588971,
512.666687,0.01394056715,512.666687,0.01310078986,512.666687,0.02216695808,512.666687,0.02574006654,512.666687,0.02629604377,
512,0.01394524518,512,0.01305973344,512,0.02215028554,512,0.02576442994,512,0.02628025785,
511.3333435,0.01394834649,511.3333435,0.01311690453,511.3333435,0.02220261842,511.3333435,0.02572855912,511.3333435,0.02629395388,
510.6666565,0.01391958445,510.6666565,0.01311188843,510.6666565,0.02218978666,510.6666565,0.02576937526,510.6666565,0.02626395039,
510,0.01392316632,510,0.01315425709,510,0.0221495498,510,0.02577830106,510,0.02627076954,
509.3333435,0.01398149319,509.3333435,0.01315911394,509.3333435,0.02215412632,509.3333435,0.02576374263,509.3333435,0.02622273006,
508.6666565,0.01392955426,508.6666565,0.0130790472,508.6666565,0.02216134593,508.6666565,0.02576118894,508.6666565,0.02621967718,
508,0.01393735968,508,0.01307848748,508,0.02212950215,508,0.02578530647,508,0.02617021464,
507.3333435,0.01388489176,507.3333435,0.01307584625,507.3333435,0.02214497328,507.3333435,0.0257810764,507.3333435,0.02619284205,
506.6666565,0.01389502082,506.6666565,0.01313779503,506.6666565,0.02202627808,506.6666565,0.02575533837,506.6666565,0.02619905584,
506,0.01388272643,506,0.01309526712,506,0.02213146351,506,0.02581390366,506,0.02616982907,
505.3333435,0.01391367707,505.3333435,0.01314737368,505.3333435,0.02204610407,505.3333435,0.02576028183,505.3333435,0.02617719769,
504.6666565,0.01389929745,504.6666565,0.01313928887,504.6666565,0.02200046182,504.6666565,0.02582143061,504.6666565,0.02618731558,
504,0.01393733267,504,0.01317136083,504,0.02203504741,504,0.02577907033,504,0.02611371875,
503.3333435,0.01395681966,503.3333435,0.01304887608,503.3333435,0.0219843965,503.3333435,0.02577470429,503.3333435,0.02613205463,
502.6666565,0.01398085151,502.6666565,0.01315225661,502.6666565,0.02196898311,502.6666565,0.02584060654,502.6666565,0.02616273612,
502,0.01392597333,502,0.01311775763,502,0.02200285718,502,0.02581744641,502,0.02617054433,
501.3333435,0.01391993184,501.3333435,0.01311471686,501.3333435,0.021972524,501.3333435,0.02580101974,501.3333435,0.02612674795,
500.6666565,0.01392466296,500.6666565,0.01316746511,500.6666565,0.02202287316,500.6666565,0.02577462047,500.6666565,0.02608697116,
500,0.01392923389,500,0.01311410312,500,0.02196274884,500,0.02585335448,500,0.02614596486,
499.3333435,0.01393917762,499.3333435,0.01312618889,499.3333435,0.02199202031,499.3333435,0.0258145351,499.3333435,0.02613337338,
498.6666565,0.01392517146,498.6666565,0.01311613061,498.6666565,0.02194869891,498.6666565,0.02580555156,498.6666565,0.02609906532,
498,0.0139479721,498,0.01313347276,498,0.02193843387,498,0.02585247532,498,0.02611973882,
497.3333435,0.01392060053,497.3333435,0.01309307944,497.3333435,0.02195667662,497.3333435,0.0258176662,497.3333435,0.02607537061,
496.6666565,0.01390908007,496.6666565,0.01314363815,496.6666565,0.0218670778,496.6666565,0.02578151599,496.6666565,0.02607314475,
496,0.01393519435,496,0.01312058605,496,0.02190674283,496,0.02581327222,496,0.02610107325,
495.3333435,0.01389315072,495.3333435,0.01311530359,495.3333435,0.02188890986,495.3333435,0.02579099312,495.3333435,0.02601424232,
494.6666565,0.01387307886,494.6666565,0.01311730407,494.6666565,0.02182706073,494.6666565,0.0258293692,494.6666565,0.02608507313,
494,0.01387778204,494,0.01311063487,494,0.02180871554,494,0.0258237645,494,0.02607130259,
493.3333435,0.01388082933,493.3333435,0.0131491879,493.3333435,0.02190557122,493.3333435,0.0257962402,493.3333435,0.02600410022,
492.6666565,0.01389023662,492.6666565,0.01311007421,492.6666565,0.02180999517,492.6666565,0.02574259415,492.6666565,0.02598085068,
492,0.01390862558,492,0.01311391592,492,0.0218746718,492,0.02582895756,492,0.02598876506,
491.3333435,0.01389274932,491.3333435,0.01310601924,491.3333435,0.02177011967,491.3333435,0.02578525245,491.3333435,0.02600151673,
490.6666565,0.01395818312,490.6666565,0.01311711781,490.6666565,0.02176617458,490.6666565,0.02575934865,490.6666565,0.02595328726,
490,0.01390646119,490,0.01311618369,490,0.02170975879,490,0.02575901896,490,0.02598390169,
489.3333435,0.01390547212,489.3333435,0.01313195191,489.3333435,0.0218010135,489.3333435,0.02578775212,489.3333435,0.0259679351,
488.6666565,0.01391383819,488.6666565,0.01317042671,488.6666565,0.02179641277,488.6666565,0.02579860203,488.6666565,0.02598010935,
488,0.01387086045,488,0.01308358274,488,0.02175667509,488,0.02574610896,488,0.02589802817,
487.3333435,0.01386992447,487.3333435,0.01312947087,487.3333435,0.0217392575,487.3333435,0.02577464841,487.3333435,0.02592154965,
486.6666565,0.01385870017,486.6666565,0.01309628133,486.6666565,0.0217158813,486.6666565,0.02575377189,486.6666565,0.02588909864,
486,0.01385185868,486,0.01313771494,486,0.02163228951,486,0.02577885054,486,0.02592289448,
485.3333435,0.01382614952,485.3333435,0.01320391521,485.3333435,0.02164545842,485.3333435,0.02576385252,485.3333435,0.0258920379,
484.6666565,0.01381546073,484.6666565,0.01313069742,484.6666565,0.02163443901,484.6666565,0.02576497942,484.6666565,0.02594317496,
484,0.01379883941,484,0.01318342146,484,0.02158865146,484,0.02576824836,484,0.02593405172,
483.3333435,0.01380402315,483.3333435,0.01311196852,483.3333435,0.02159226872,483.3333435,0.0257939864,483.3333435,0.02585695311,
482.6666565,0.01383007783,482.6666565,0.01316108834,482.6666565,0.0215831548,482.6666565,0.02575371787,482.6666565,0.02588772401,
482,0.01380242035,482,0.01311156806,482,0.02151376195,482,0.02575119026,482,0.02585519478,
481.3333435,0.01372920815,481.3333435,0.01315753907,481.3333435,0.02155309543,481.3333435,0.02561972477,481.3333435,0.02577929012,
480.6666565,0.01376634743,480.6666565,0.01313512679,480.6666565,0.02154806256,480.6666565,0.02574720792,480.6666565,0.02582401223,
480,0.01373623498,480,0.01320154034,480,0.02147288062,480,0.02567788772,480,0.02579816245,
479.333313,0.01373155974,479.333313,0.01312296093,479.333313,0.02151903883,479.333313,0.02559663169,479.333313,0.02578102052,
478.6666565,0.01370142307,478.6666565,0.01309814863,478.6666565,0.02145324461,478.6666565,0.02560791746,478.6666565,0.02573388629,
478,0.01368737128,478,0.01309721451,478,0.02144709788,478,0.02563414164,478,0.02574278601,
477.333313,0.0137153687,477.333313,0.01311162207,477.333313,0.02141783573,477.333313,0.02557593025,477.333313,0.02569400705,
476.6666565,0.01367070153,476.6666565,0.01308307517,476.6666565,0.02149820328,476.6666565,0.0256012734,476.6666565,0.02571897209,
476,0.01365331095,476,0.01313403249,476,0.02137253061,476,0.02560926229,476,0.02567703463,
475.333313,0.01362112351,475.333313,0.01315246988,475.333313,0.02142661996,475.333313,0.02553892136,475.333313,0.02565242909,
474.6666565,0.01358706877,474.6666565,0.01312106661,474.6666565,0.02138329856,474.6666565,0.02549120784,474.6666565,0.02560377121,
474,0.01361340377,474,0.01303585898,474,0.021391185,474,0.02550820075,474,0.0256002564,
473.333313,0.01363706961,473.333313,0.01303999312,473.333313,0.02135956101,473.333313,0.02550726756,473.333313,0.02559413388,
472.6666565,0.01358629391,472.6666565,0.01305130403,472.6666565,0.02131167985,472.6666565,0.025439905,472.6666565,0.02555992268,
472,0.01357747987,472,0.01307739317,472,0.02130433917,472,0.02542041801,472,0.02552390285,
471.333313,0.0136357341,471.333313,0.01302068122,471.333313,0.02124333568,471.333313,0.02540889196,471.333313,0.02554512583,
470.6666565,0.01359516103,470.6666565,0.01308833156,470.6666565,0.02120642178,470.6666565,0.02536484413,470.6666565,0.02554007433,
470,0.01356706396,470,0.01307584625,470,0.02123088576,470,0.02532856539,470,0.02552332729,
469.333313,0.01353942323,469.333313,0.01305383816,469.333313,0.02117100544,469.333313,0.02529300377,469.333313,0.02549716458,
468.6666565,0.01348155551,468.6666565,0.01304124668,468.6666565,0.02112377062,468.6666565,0.02519174106,468.6666565,0.02544352971,
468,0.01349765714,468,0.01301582623,468,0.02110401355,468,0.02516521513,468,0.02543213777,
467.333313,0.01354874298,467.333313,0.01303636562,467.333313,0.02105966769,467.333313,0.02514639869,467.333313,0.02539423481,
466.6666565,0.01356519479,466.6666565,0.01308206189,466.6666565,0.02103882656,466.6666565,0.02514220215,466.6666565,0.02543254942,
466,0.01348278392,466,0.01306194719,466,0.02104257606,466,0.02500762977,466,0.02532299422,
465.333313,0.01341258921,465.333313,0.01306616236,465.333313,0.02098011412,465.333313,0.02496795356,465.333313,0.0253272485,
464.6666565,0.01344449446,464.6666565,0.01301518641,464.6666565,0.02094884589,464.6666565,0.02492778935,464.6666565,0.02531465329,
464,0.01345856581,464,0.01301262528,464,0.02094335854,464,0.02495454624,464,0.02534195594,
463.333313,0.01339801308,463.333313,0.01301033143,463.333313,0.02095183358,463.333313,0.02490470558,463.333313,0.02528877743,
462.6666565,0.01344428118,462.6666565,0.01304572821,462.6666565,0.02095887065,462.6666565,0.02487087809,462.6666565,0.02526512742,
462,0.01339480933,462,0.01306018699,462,0.02093281969,462,0.02476294525,462,0.02523840405,
461.333313,0.013421827,461.333313,0.01301934756,461.333313,0.02094330452,461.333313,0.02474398166,461.333313,0.02521925606,
460.6666565,0.01339504961,460.6666565,0.01306906994,460.6666565,0.02090538479,460.6666565,0.02476031333,460.6666565,0.02525513992,
460,0.01334531605,460,0.0130024096,460,0.02090538479,460,0.02482222579,460,0.02524254844,
459.333313,0.01338826865,459.333313,0.01298864745,459.333313,0.02091687359,459.333313,0.02475091442,459.333313,0.02523991466,
458.6666565,0.01338335592,458.6666565,0.01297685783,458.6666565,0.02091347799,458.6666565,0.02478188276,458.6666565,0.02521832287,
458,0.01336301398,458,0.01303303149,458,0.02087072656,458,0.02476955019,458,0.0252351407,
457.333313,0.01334774494,457.333313,0.01301537268,457.333313,0.02088042162,457.333313,0.02480613627,457.333313,0.02522043511,
456.6666565,0.01334363408,456.6666565,0.01303903293,456.6666565,0.0208539404,456.6666565,0.02472348325,456.6666565,0.02515245974,
456,0.01335719507,456,0.01299555507,456,0.02089308016,456,0.02476075292,456,0.02518844977,
455.333313,0.01338714734,455.333313,0.01308446284,455.333313,0.02087558806,455.333313,0.02475688793,455.333313,0.02524430305,
454.6666565,0.0133836763,454.6666565,0.0129754981,454.6666565,0.02086227946,454.6666565,0.02480641194,454.6666565,0.02520509996,
454,0.01337654889,454,0.013050423,454,0.02088669688,454,0.02481572889,454,0.02528875135,
453.333313,0.01338629238,453.333313,0.01303761918,453.333313,0.02091847733,453.333313,0.02482417226,453.333313,0.02522370033,
452.6666565,0.01338308956,452.6666565,0.01308512967,452.6666565,0.02093132585,452.6666565,0.0248316545,452.6666565,0.02524331585,
452,0.01337940525,452,0.01310839318,452,0.02090576477,452,0.02480325848,452,0.02520485409,
451.333313,0.01340247132,451.333313,0.01310452539,451.333313,0.02089495398,451.333313,0.02484549582,451.333313,0.02527714521,
450.6666565,0.01338180806,450.6666565,0.01306634862,450.6666565,0.02092896216,450.6666565,0.02484900504,450.6666565,0.02528916299,
450,0.01342649944,450,0.01310348418,450,0.02093170583,450,0.02483357303,450,0.02528458089,
449.333313,0.0134375263,449.333313,0.01311703771,449.333313,0.02094354853,449.333313,0.02486665733,449.333313,0.02527851611,
448.6666565,0.0134165138,448.6666565,0.01309425384,448.6666565,0.02088876069,448.6666565,0.02482600696,448.6666565,0.02525047585,
448,0.01341229584,448,0.01316386275,448,0.02092217095,448,0.02481849864,448,0.02529138513,
447.333313,0.01340596844,447.333313,0.01319412235,447.333313,0.02090345509,447.333313,0.024888888,447.333313,0.02527396195,
446.6666565,0.0134283416,446.6666565,0.01315927319,446.6666565,0.02090185322,446.6666565,0.02486229874,446.6666565,0.02522877604,
446,0.01340853143,446,0.0131635163,446,0.0208698567,446,0.0248633679,446,0.02530798502,
445.333313,0.01341274939,445.333313,0.01314350497,445.333313,0.02092328481,445.333313,0.02486830205,445.333313,0.02526433207,
444.6666565,0.01338709332,444.6666565,0.01315126941,444.6666565,0.02087327838,444.6666565,0.02489234321,444.6666565,0.0253012348,
444,0.01343109179,444,0.01322854683,444,0.02087401226,444,0.02485736459,444,0.02529459447,
443.333313,0.01339545008,443.333313,0.01319740433,443.333313,0.02092841826,443.333313,0.02487652563,443.333313,0.02523974888,
442.6666565,0.01339793298,442.6666565,0.01323337667,442.6666565,0.02083601616,442.6666565,0.02485914715,442.6666565,0.02522433177,
442,0.01333437208,442,0.01325552724,442,0.02088213339,442,0.02486830205,442,0.02522095665,
441.333313,0.01329937857,441.333313,0.01321493648,441.333313,0.02083471231,441.333313,0.02486180514,441.333313,0.02523500286,
440.6666565,0.01336167939,440.6666565,0.01315271016,440.6666565,0.02088533901,440.6666565,0.0249665007,440.6666565,0.02530943975,
440,0.01333893649,440,0.01317685749,440,0.02086284943,440,0.02498275973,440,0.02527014911,
439.333313,0.0133578619,439.333313,0.01317835227,439.333313,0.02082958072,439.333313,0.02482030727,439.333313,0.02515240572,
438.6666565,0.0133058643,438.6666565,0.01317701768,438.6666565,0.02086426131,438.6666565,0.02478969283,438.6666565,0.02515501156,
438,0.01329030376,438,0.0131999664,438,0.02083748393,438,0.02475436777,438,0.02509428561,
437.333313,0.01334769186,437.333313,0.01322171465,437.333313,0.02088001557,437.333313,0.02475951985,437.333313,0.02513128519,
436.6666565,0.01325915661,436.6666565,0.01319006644,436.6666565,0.0208038073,436.6666565,0.0247308556,436.6666565,0.02507700771,
436,0.01324618701,436,0.01318993233,436,0.02079734579,436,0.02494991384,436,0.02521407045,
435.333313,0.01333122235,435.333313,0.01318931859,435.333313,0.02084701508,435.333313,0.02483949251,435.333313,0.02513432875,
434.6666565,0.01323439088,434.6666565,0.01321365591,434.6666565,0.02083623409,434.6666565,0.02483664267,434.6666565,0.02509642579,
434,0.0133188637,434,0.01325243153,434,0.02086252347,434,0.02481794916,434,0.02508770302,
433.333313,0.01326580252,433.333313,0.01323655248,433.333313,0.02083034068,433.333313,0.02478196472,433.333313,0.02504703403,
432.6666565,0.01322806627,432.6666565,0.01329823118,432.6666565,0.02084495127,432.6666565,0.02474113181,432.6666565,0.02505164035,
432,0.01321317535,432,0.01323580556,432,0.02085920982,432,0.02477291971,432,0.02501665056,
431.333313,0.01324845478,431.333313,0.0132853128,431.333313,0.02081727795,431.333313,0.02480421774,431.333313,0.02510152571,
430.6666565,0.01324978936,430.6666565,0.01323065441,430.6666565,0.02081801184,430.6666565,0.0248255413,430.6666565,0.02512206882,
430,0.01321266871,430,0.01328219008,430,0.02085027471,430,0.02473315597,430,0.02503244579,
429.333313,0.01323796716,429.333313,0.01330837328,429.333313,0.02078708075,429.333313,0.02474702336,429.333313,0.0251079984,
428.6666565,0.01324239746,428.6666565,0.01331010833,428.6666565,0.02084514126,428.6666565,0.02481013909,428.6666565,0.02504859678,
428,0.0132427169,428,0.01334790513,428,0.02095365524,428,0.024976179,428,0.02525001019,
427.333313,0.01320012659,427.333313,0.01330081932,427.333313,0.02083919384,427.333313,0.02478678711,427.333313,0.0250591822,
426.6666565,0.01320762467,426.6666565,0.01330888085,426.6666565,0.02081095055,426.6666565,0.02481836081,426.6666565,0.02507596649,
426,0.01324453205,426,0.01329508144,426,0.02082659304,426,0.02475639433,426,0.02503206208,
425.333313,0.01318643708,425.333313,0.01324653346,425.333313,0.0207947921,425.333313,0.02476897463,425.333313,0.02506875433,
424.6666565,0.01318107359,424.6666565,0.01336501632,424.6666565,0.02081716992,424.6666565,0.02480786294,424.6666565,0.02511493862,
424,0.01321272179,424,0.01336389501,424,0.02085233852,424,0.02480854839,424,0.02508773096,
423.333313,0.01321493648,423.333313,0.01338354312,423.333313,0.0208508987,423.333313,0.02480306663,423.333313,0.02508575656,
422.6666565,0.01322088763,422.6666565,0.01340209693,422.6666565,0.02098804712,422.6666565,0.02498377487,422.6666565,0.02526279539,
422,0.01322459709,422,0.01330260839,422,0.0209232308,422,0.02491501346,422,0.02521489374,
421.333313,0.01322400942,421.333313,0.01338850893,421.333313,0.0209598206,421.333313,0.02489971556,421.333313,0.02513018809,
420.6666565,0.01317050681,420.6666565,0.01333191618,420.6666565,0.02092005126,420.6666565,0.0248175934,420.6666565,0.02508880012,
420,0.0132276658,420,0.01347725652,420,0.02096606977,420,0.02488820255,420,0.02518466301,
419.333313,0.01317098737,419.333313,0.0134999007,419.333313,0.0209314879,419.333313,0.02494744584,419.333313,0.02515953779,
418.6666565,0.01323655248,418.6666565,0.01353066321,418.6666565,0.02095770277,418.6666565,0.0249432791,418.6666565,0.02515608072,
418,0.01317181438,418,0.01347981952,418,0.02091152221,418,0.02512892708,418,0.02536333352,
417.333313,0.01318726409,417.333313,0.01345402654,417.333313,0.02096055448,417.333313,0.02510520257,417.333313,0.02529755794,
416.6666565,0.01326406747,416.6666565,0.01342681982,416.6666565,0.02096835151,416.6666565,0.02501083724,416.6666565,0.02521157451,
416,0.01316236891,416,0.01347469352,416,0.02098185383,416,0.02502983995,416,0.0252102036,
415.333313,0.01319969911,415.333313,0.01348358486,415.333313,0.02095199749,415.333313,0.02501379885,415.333313,0.02524586767,
414.6666565,0.01323551219,414.6666565,0.01353995688,414.6666565,0.0209868513,414.6666565,0.02511855774,414.6666565,0.02529939637,
414,0.0132363392,414,0.0135502927,414,0.02102893591,414,0.02505542524,414,0.02525269799,
413.333313,0.01324111596,413.333313,0.01358493231,413.333313,0.02109184116,413.333313,0.02516118251,413.333313,0.02536363527,
412.6666565,0.01326678973,412.6666565,0.0136196008,412.6666565,0.02107325383,412.6666565,0.02512873337,412.6666565,0.02531994879,
412,0.01321923267,412,0.01350836549,412,0.02108012885,412,0.02518444322,412,0.02536846511,
411.333313,0.01331293769,411.333313,0.01360362861,411.333313,0.02110213973,411.333313,0.02528488263,411.333313,0.0254212413,
410.6666565,0.01322753262,410.6666565,0.01368224155,410.6666565,0.02113284729,410.6666565,0.02524987236,410.6666565,0.02543276921,
410,0.01322163455,410,0.01368042547,410,0.02110553719,410,0.02527873591,410,0.02547372319,
409.333313,0.01313643437,409.333313,0.01369573269,409.333313,0.0212067198,409.333313,0.0252746474,409.333313,0.02536712028,
408.6666565,0.01319502946,408.6666565,0.01366111077,408.6666565,0.02117752843,408.6666565,0.02531588823,408.6666565,0.02542201057,
408,0.01319807116,408,0.01375028864,408,0.02117975801,408,0.02527843416,408,0.02546979673,
407.333313,0.01320394222,407.333313,0.0137117086,407.333313,0.02116181888,407.333313,0.0253276322,407.333313,0.02551086433,
406.6666565,0.01322475728,406.6666565,0.01370198466,406.6666565,0.02115170844,406.6666565,0.02538493276,406.6666565,0.025534885,
406,0.01312362775,406,0.01378344838,406,0.02123450115,406,0.02539171092,406,0.02557395399,
405.333313,0.01317909919,405.333313,0.01383146737,405.333313,0.02113942429,405.333313,0.02549727447,405.333313,0.0256608054,
404.6666565,0.01319884509,404.6666565,0.01383283082,404.6666565,0.02119043842,404.6666565,0.02549090609,404.6666565,0.02561409585,
404,0.01316498406,404,0.01376391575,404,0.02123906836,404,0.02552544139,404,0.02566544712,
403.333313,0.01313440688,403.333313,0.0137805352,403.333313,0.02124627121,403.333313,0.02554872259,403.333313,0.02568088099,
402.6666565,0.01319921855,402.6666565,0.01382628363,402.6666565,0.02126421221,402.6666565,0.02552305348,402.6666565,0.02568793856,
402,0.01313008461,402,0.0138577912,402,0.02137799747,402,0.02552538551,402,0.02566267364,
401.333313,0.01310540549,401.333313,0.01391055062,401.333313,0.02132211998,401.333313,0.02555341646,401.333313,0.02570969053,
400.6666565,0.01323705912,400.6666565,0.01387123484,400.6666565,0.02138694376,400.6666565,0.02563999034,400.6666565,0.02593331039,
400,0.01326452103,400,0.01398296375,400,0.02144554816,400,0.0256012734,400,0.02582329884,
399.333313,0.01314366516,399.333313,0.0139666032,399.333313,0.02145066112,399.333313,0.02567887492,399.333313,0.02575355209,
398.6666565,0.01322526392,398.6666565,0.01394305378,398.6666565,0.02141998336,398.6666565,0.02572655305,398.6666565,0.02583489195,
398,0.01322830655,398,0.01396107022,398,0.0214791093,398,0.02569647878,398,0.02584250085,
397.333313,0.01312714908,397.333313,0.01402908098,397.333313,0.02146295272,397.333313,0.02577039041,397.333313,0.02601231821,
396.6666565,0.01317184139,396.6666565,0.01404108573,396.6666565,0.02153013647,396.6666565,0.02581321634,396.6666565,0.02601743117,
396,0.01322929375,396,0.01415887568,396,0.02153598517,396,0.02582349069,396,0.02600182034,
395.333313,0.01317811199,395.333313,0.01416192483,395.333313,0.02154836245,395.333313,0.02594735101,395.333313,0.02606203966,
394.6666565,0.0132385008,394.6666565,0.01418495178,394.6666565,0.02158617415,394.6666565,0.02592179552,394.6666565,0.02604568563,
394,0.01311802492,394,0.01415574644,394,0.02158769779,394,0.02603875846,394,0.02614200674,
393.333313,0.01321514975,393.333313,0.01411945745,393.333313,0.02167389356,393.333313,0.02609233186,393.333313,0.02616378106,
392.6666565,0.01323116198,392.6666565,0.01425580587,392.6666565,0.02158563025,392.6666565,0.02614247426,392.6666565,0.02620766126,
392,0.01325224526,392,0.01425144635,392,0.02168205567,392,0.02620997094,392,0.02633823268,
391.333313,0.01325856987,391.333313,0.01437370852,391.333313,0.02169109136,391.333313,0.02622905374,391.333313,0.02630908042,
390.6666565,0.01323311031,390.6666565,0.01430088188,390.6666565,0.02171188034,390.6666565,0.02626678348,390.6666565,0.02636070549,
390,0.01322400942,390,0.01449688897,390,0.02176992968,390,0.02633746341,390,0.02643753588,
389.333313,0.01324674673,389.333313,0.01446008869,389.333313,0.02190102451,389.333313,0.02638634108,389.333313,0.02651047334,
388.6666565,0.01322507765,388.6666565,0.01450746041,388.6666565,0.02181856893,388.6666565,0.02647008188,388.6666565,0.02653826401,
388,0.01319932565,388,0.01451854128,388,0.02191991918,388,0.02653595246,388,0.02658752352,
387.333313,0.01329817716,387.333313,0.01455542725,387.333313,0.021941429,387.333313,0.02655160986,387.333313,0.02671033517,
386.6666565,0.01323068142,386.6666565,0.01464377064,386.6666565,0.02199986205,386.6666565,0.02659198083,386.6666565,0.0266966261,
386,0.01323332358,386,0.0146978572,386,0.02214718051,386,0.02682773024,386,0.02693003602,
385.333313,0.01325945091,385.333313,0.01476949174,385.333313,0.02218237706,385.333313,0.0268240124,385.333313,0.02691965364,
384.6666565,0.0132899303,384.6666565,0.01477412507,384.6666565,0.02213217132,384.6666565,0.02682035044,384.6666565,0.02691921219,
384,0.0132493088,384,0.01478939038,384,0.02223256044,384,0.02703302912,384,0.02710576169,
383.333313,0.01320698392,383.333313,0.01478296332,383.333313,0.02225065045,383.333313,0.02698818222,383.333313,0.02720342204,
382.6666565,0.01333848201,382.6666565,0.01492396742,382.6666565,0.02244341001,382.6666565,0.02713615447,382.6666565,0.0272887256,
382,0.01326879207,382,0.01501935441,382,0.02247541398,382,0.02728470229,382,0.02747598477,
381.333313,0.01328029484,381.333313,0.01496453118,381.333313,0.02258479781,381.333313,0.02735915966,381.333313,0.02749344148,
380.6666565,0.01329743024,380.6666565,0.01516665425,380.6666565,0.02260489389,380.6666565,0.02747195959,380.6666565,0.02754443511,
380,0.01328573935,380,0.01518075448,380,0.02275833674,380,0.02758357488,380,0.02771342918,
379.333313,0.01332831196,379.333313,0.01524211932,379.333313,0.02278831787,379.333313,0.02769651636,379.333313,0.02778034471,
378.6666565,0.01323601883,378.6666565,0.01533242688,378.6666565,0.02299788222,378.6666565,0.02782328613,378.6666565,0.02796185389,
378,0.01339702494,378,0.01538174506,378,0.02304791473,378,0.02789631858,378,0.02802057751,
377.333313,0.01333370432,377.333313,0.01556034386,377.333313,0.02317530103,377.333313,0.02827130444,377.333313,0.02842538059,
376.6666565,0.01333204936,376.6666565,0.0156834051,376.6666565,0.0233135391,376.6666565,0.0283826571,376.6666565,0.02844417468,
376,0.01330284867,376,0.01588266902,376,0.02345846221,376,0.02848715335,376,0.02859441377,
375.333313,0.0134049803,375.333313,0.01594074816,375.333313,0.02381585352,375.333313,0.02864216454,375.333313,0.02884519473,
374.6666565,0.01338244881,374.6666565,0.01599676907,374.6666565,0.02380357496,374.6666565,0.0288966801,374.6666565,0.02897387743,
374,0.01334296726,374,0.01615866832,374,0.02398093976,374,0.02906750143,374,0.02922402136,
373.333313,0.01343960874,373.333313,0.01637720689,373.333313,0.02418341674,373.333313,0.02939275466,373.333313,0.02956219204,
372.6666565,0.01345098298,372.6666565,0.01647202671,372.6666565,0.02438212931,372.6666565,0.02962124534,372.6666565,0.02966758423,
372,0.01348190289,372,0.01666971482,372,0.02469309606,372,0.02984677814,372,0.03000471555,
371.333313,0.01351346541,371.333313,0.01683466323,371.333313,0.02494475991,371.333313,0.03011529148,371.333313,0.03019287251,
370.6666565,0.01356711797,370.6666565,0.01699916273,370.6666565,0.02528575994,370.6666565,0.0304690972,370.6666565,0.03051899746,
370,0.01356767863,370,0.01714067347,370,0.02543968707,370,0.03076750413,370,0.03084575757,
369.333313,0.01353613846,369.333313,0.01738198847,369.333313,0.02572850324,369.333313,0.03106430732,369.333313,0.03117918596,
368.6666565,0.01361564733,368.6666565,0.0175118465,368.6666565,0.02620738745,368.6666565,0.03157193959,368.6666565,0.03169104829,
368,0.01364609879,368,0.0177597329,368,0.02651801147,368,0.03186904639,368,0.0319284685,
367.333313,0.01365982927,367.333313,0.01802948117,367.333313,0.02688228153,367.333313,0.03217476979,367.333313,0.03227299079,
366.6666565,0.01370503008,366.6666565,0.01831257343,366.6666565,0.02710143663,366.6666565,0.03256340325,366.6666565,0.03266841173,
366,0.0137904752,366,0.01853814349,366,0.02755775861,366,0.0328877978,366,0.03301885724,
365.333313,0.01381257456,365.333313,0.01878185943,365.333313,0.02798661776,365.333313,0.0334321782,365.333313,0.03352598473,
364.6666565,0.01384948008,364.6666565,0.01903880015,364.6666565,0.02837080136,364.6666565,0.03383475542,364.6666565,0.03397880867,
364,0.01398924645,364,0.01930996776,364,0.02884619124,364,0.03435536101,364,0.034443371,
363.333313,0.01399371028,363.333313,0.01960015111,363.333313,0.02935929596,363.333313,0.0347998254,363.333313,0.03491204977,
362.6666565,0.01401306596,362.6666565,0.0199680943,362.6666565,0.02970638871,362.6666565,0.03527551144,362.6666565,0.03537671268,
362,0.01405982766,362,0.02027317509,362,0.0301338248,362,0.03575276211,362,0.03584808484,
361.333313,0.01410956308,361.333313,0.02056527883,361.333313,0.03073232621,361.333313,0.03627671674,361.333313,0.0364064388,
360.6666565,0.0140962461,360.6666565,0.02068838291,360.6666565,0.03111953288,360.6666565,0.03675591201,360.6666565,0.03685737401,
360,0.01412279997,360,0.02102434449,360,0.03160542995,360,0.03733478487,360,0.03747427836,
359.333313,0.01421242021,359.333313,0.02135923505,359.333313,0.03209627792,359.333313,0.03784107789,359.333313,0.03797053546,
358.6666565,0.01424614992,358.6666565,0.02165253274,358.6666565,0.03254780918,358.6666565,0.03830498829,358.6666565,0.03844724968,
358,0.0143106468,358,0.0220427271,358,0.03301491961,358,0.03873503208,358,0.03892494366,
357.333313,0.01430636644,357.333313,0.022272503,357.333313,0.03343899921,357.333313,0.03927625343,357.333313,0.03940075263,
356.6666565,0.01443536114,356.6666565,0.02257686295,356.6666565,0.03386153653,356.6666565,0.03970726207,356.6666565,0.03983100504,
356,0.01446520071,356,0.02290978655,356,0.03429871425,356,0.04021868855,356,0.04033572972,
355.333313,0.01447957195,355.333313,0.02310715243,355.333313,0.03463323787,355.333313,0.04068847001,355.333313,0.04078254849,
354.6666565,0.01450903993,354.6666565,0.02334301174,354.6666565,0.03501835465,354.6666565,0.04110915959,354.6666565,0.04121015966,
354,0.01457140781,354,0.02358235978,354,0.035303168,354,0.0415924117,354,0.04163195193,
353.333313,0.01466885861,353.333313,0.02388279885,353.333313,0.03583709151,353.333313,0.04195891693,353.333313,0.04212035239,
352.6666565,0.01461057272,352.6666565,0.02412031032,352.6666565,0.03606348485,352.6666565,0.04221516848,352.6666565,0.04245436192,
352,0.01464604679,352,0.02430106327,352,0.03646932915,352,0.04261263832,352,0.04277551919,
351.333313,0.01474854909,351.333313,0.02444664389,351.333313,0.03658130765,351.333313,0.04298669472,351.333313,0.04312650114,
350.6666565,0.01477329433,350.6666565,0.02460435405,350.6666565,0.03704562038,350.6666565,0.04331176355,350.6666565,0.04345999658,
350,0.01480090711,350,0.02466640808,350,0.03719314188,350,0.04359391332,350,0.04371032491,
349.333313,0.01528946962,349.333313,0.02441846579,349.333313,0.03723093122,349.333313,0.04346663505,349.333313,0.04410827905,
348.6666565,0.01456409972,348.6666565,0.02456794865,348.6666565,0.03680519015,348.6666565,0.04408022761,348.6666565,0.04421531036,
348,0.01445278246,348,0.02519700862,348,0.03801245987,348,0.04424818605,348,0.04459600151,
347.333313,0.01494379342,347.333313,0.02484820969,347.333313,0.03814595193,347.333313,0.04452337325,347.333313,0.04500570521,
346.6666565,0.0146678146,346.6666565,0.02537491545,346.6666565,0.03813832253,346.6666565,0.04511172324,346.6666565,0.04515632987,
346,0.01460572705,346,0.02569521591,346,0.03845285252,346,0.04506367818,346,0.04556590319,
345.333313,0.01498473343,345.333313,0.0255805701,345.333313,0.03871185333,345.333313,0.04548509419,345.333313,0.04611864686,
344.6666565,0.01453013159,344.6666565,0.02579791471,344.6666565,0.03881261125,344.6666565,0.04612126574,344.6666565,0.04639433324,
344,0.01483045053,344,0.02602133341,344,0.03926616535,344,0.04604677483,344,0.04634490609,
343.333313,0.0148691833,343.333313,0.0261191614,343.333313,0.03923550993,343.333313,0.04652783275,343.333313,0.04695716128,
342.6666565,0.01477490179,342.6666565,0.02642942034,342.6666565,0.03992770985,342.6666565,0.0469321534,342.6666565,0.04731679335,
342,0.01484306622,342,0.02644829266,342,0.04025200009,342,0.04725236818,342,0.04766689986,
341.333313,0.01483315602,341.333313,0.02669833414,341.333313,0.04029431939,341.333313,0.04776443914,341.333313,0.04813978076,
340.6666565,0.01482075453,340.6666565,0.02689373866,340.6666565,0.0408459343,340.6666565,0.04822458327,340.6666565,0.04852129146,
340,0.01489190012,340,0.02730008215,340,0.0408070609,340,0.04832126573,340,0.04872763902,
339.333313,0.01500662602,339.333313,0.02738865837,339.333313,0.04116428271,339.333313,0.04888178781,339.333313,0.0493811965,
338.6666565,0.01495108102,338.6666565,0.02757615596,338.6666565,0.04149496555,338.6666565,0.0492269285,338.6666565,0.04979553074,
338,0.01504390035,338,0.02779734321,338,0.04196381941,338,0.0496921353,338,0.05020485446,
337.333313,0.01510838233,337.333313,0.02798545733,337.333313,0.04240926355,337.333313,0.05029886961,337.333313,0.05054026097,
336.6666565,0.01507230755,336.6666565,0.02810433134,336.6666565,0.042364683,336.6666565,0.0506641604,336.6666565,0.05113353208,
336,0.01515418943,336,0.0284944512,336,0.04296480492,336,0.0510468781,336,0.0515152663,
335.333313,0.01526024379,335.333313,0.02858822048,335.333313,0.04334333912,335.333313,0.05167396367,335.333313,0.05202340335,
334.6666565,0.01520675793,334.6666565,0.02893704921,334.6666565,0.0435960032,334.6666565,0.05199959129,334.6666565,0.05241506174,
334,0.01524935849,334,0.02898641303,334,0.04377099127,334,0.05257382616,334,0.05286963657,
333.333313,0.01534318086,333.333313,0.02950553037,333.333313,0.04434765503,333.333313,0.05284501612,333.333313,0.05313065276,
332.6666565,0.01531607006,332.6666565,0.02957122587,332.6666565,0.04459313303,332.6666565,0.05352307856,332.6666565,0.0537725091,
332,0.01528633293,332,0.02986014262,332,0.04499404877,332,0.05398230255,332,0.05444028229,
331.333313,0.01541526988,331.333313,0.03026144765,331.333313,0.04540806636,331.333313,0.05461746082,331.333313,0.0551424697,
330.6666565,0.01561438385,330.6666565,0.03042880818,330.6666565,0.04557708651,330.6666565,0.05526866019,330.6666565,0.05564783886,
330,0.01539373305,330,0.03070590459,330,0.04618926346,330,0.05559461191,330,0.05614021793,
329.333313,0.01554682199,329.333313,0.03102905117,329.333313,0.04652740061,329.333313,0.05644303188,329.333313,0.05682606995,
328.6666565,0.01558014564,328.6666565,0.03134125471,328.6666565,0.04716449603,328.6666565,0.05721505731,328.6666565,0.05765103549,
328,0.01569395326,328,0.03186060488,328,0.0477617532,328,0.05784485117,328,0.0583756119,
327.333313,0.01554714423,327.333313,0.03223016486,327.333313,0.0482779555,327.333313,0.05857526138,327.333313,0.0591244176,
326.6666565,0.01571459137,326.6666565,0.03263841197,326.6666565,0.04887040332,326.6666565,0.05959937349,326.6666565,0.06021259725,
326,0.01595613733,326,0.03306489065,326,0.04953325912,326,0.06051216647,326,0.0611034967,
325.333313,0.01591075398,325.333313,0.03357568011,325.333313,0.05020000413,325.333313,0.06148282439,325.333313,0.06187355891,
324.6666565,0.01597136259,324.6666565,0.03413131088,324.6666565,0.05102882907,324.6666565,0.06252942979,324.6666565,0.06302500516,
324,0.01602929458,324,0.03479906544,324,0.05184103549,324,0.06356585771,324,0.06397949904,
323.333313,0.0161680989,323.333313,0.03535073623,323.333313,0.05294758826,323.333313,0.06480123103,323.333313,0.0652820766,
322.6666565,0.016018847,322.6666565,0.03607875854,322.6666565,0.05377669632,322.6666565,0.06620380282,322.6666565,0.06655260921,
322,0.01629783586,322,0.03674985468,322,0.05482822284,322,0.06743422151,322,0.06780653447,
321.333313,0.01653881744,321.333313,0.03750249743,321.333313,0.05594533682,321.333313,0.06876016408,321.333313,0.06931200624,
320.6666565,0.01655624434,320.6666565,0.03824609891,320.6666565,0.05709352344,320.6666565,0.07028481364,320.6666565,0.07070210576,
320,0.01656845212,320,0.0390425995,320,0.05825647712,320,0.07173509896,320,0.07214929163,
319.333313,0.01666387729,319.333313,0.03994984552,319.333313,0.05951986089,319.333313,0.07343372703,319.333313,0.07387457788,
318.6666565,0.01702446863,318.6666565,0.04071715474,318.6666565,0.0609886758,318.6666565,0.07525136322,318.6666565,0.0755809322,
318,0.01697474718,318,0.04182330891,318,0.0622603111,318,0.07693573833,318,0.07745286822,
317.333313,0.01722308062,317.333313,0.04289707914,317.333313,0.06367327273,317.333313,0.07891217619,317.333313,0.07940208167,
316.6666565,0.01720977575,316.6666565,0.04365522042,316.6666565,0.06539611518,316.6666565,0.08094514906,316.6666565,0.08124473691,
316,0.01748395339,316,0.04487617314,316,0.06686159968,316,0.08288162947,316,0.08330129087,
315.333313,0.01775584929,315.333313,0.04584431648,315.333313,0.06867304444,315.333313,0.08501138538,315.333313,0.08551877737,
314.6666565,0.0178666953,314.6666565,0.04716556147,314.6666565,0.07025431842,314.6666565,0.08724051714,314.6666565,0.08775907755,
314,0.01788697951,314,0.04836556315,314,0.07211393118,314,0.08968028426,314,0.09021129459,
313.333313,0.01805150136,313.333313,0.04954506829,313.333313,0.07405421883,313.333313,0.0921747759,313.333313,0.09248127788,
312.6666565,0.01832855865,312.6666565,0.0508187376,312.6666565,0.07599705458,312.6666565,0.09461903572,312.6666565,0.09503690153,
312,0.01847928204,312,0.05212653801,312,0.07789643109,312,0.0970325619,312,0.09750258178,
311.333313,0.01847963221,311.333313,0.05345245823,311.333313,0.07998538762,311.333313,0.09973091632,311.333313,0.1001018956,
310.6666565,0.01911816187,310.6666565,0.05496589839,310.6666565,0.08185784519,310.6666565,0.1023064181,310.6666565,0.1027225628,
310,0.01929730177,310,0.05619713292,310,0.08403480798,310,0.104956612,310,0.1052978113,
309.333313,0.01928176917,309.333313,0.05742749572,309.333313,0.08599132299,309.333313,0.1076122373,309.333313,0.1079110578,
308.6666565,0.01955362968,308.6666565,0.0589427799,308.6666565,0.08800021559,308.6666565,0.1101737916,308.6666565,0.1106167883,
308,0.01978965104,308,0.06031751633,308,0.08996946365,308,0.1128425747,308,0.1132450923,
307.333313,0.01985148154,307.333313,0.06169380993,307.333313,0.09194931388,307.333313,0.1154715344,307.333313,0.1157563776,
306.6666565,0.02022256702,306.6666565,0.06305009127,306.6666565,0.09397406131,306.6666565,0.1179381534,306.6666565,0.1183856428,
306,0.02030325495,306,0.06433529407,306,0.09570129216,306,0.1202838644,306,0.120781973,
305.333313,0.02041768283,305.333313,0.06539596617,305.333313,0.09747154266,305.333313,0.1224964261,305.333313,0.1228875518,
304.6666565,0.02056392282,304.6666565,0.06645634025,304.6666565,0.09908689559,304.6666565,0.1247959062,304.6666565,0.1250464767,
304,0.02078982256,304,0.06764403731,304,0.1005247757,304,0.1269036084,304,0.1272662729,
303.333313,0.02090209723,303.333313,0.06859516352,303.333313,0.1020882428,303.333313,0.1289590895,303.333313,0.1293556243,
302.6666565,0.02103966847,302.6666565,0.069785662,302.6666565,0.1035896987,302.6666565,0.1310651898,302.6666565,0.1313583553,
302,0.02126731165,302,0.07061164081,302,0.1048731953,302,0.132923618,302,0.1333433986,
301.333313,0.02127345651,301.333313,0.07150816172,301.333313,0.1061280668,301.333313,0.1348079741,301.333313,0.1351037025,
300.6666565,0.02143235691,300.6666565,0.07232699543,300.6666565,0.1075072512,300.6666565,0.136395663,300.6666565,0.1369625032,
300,0.02154972218,300,0.07333897799,300,0.1085859165,300,0.1383015066,300,0.1386669874,
299.333313,0.02171520144,299.333313,0.07407172024,299.333313,0.1097597182,299.333313,0.1399946958,299.333313,0.1404312104,
298.6666565,0.02179499716,298.6666565,0.07498412579,298.6666565,0.1107108667,298.6666565,0.1415803432,298.6666565,0.1421590894,
298,0.02185539901,298,0.07552277297,298,0.1119121686,298,0.1431588084,298,0.1435551643,
297.333313,0.02187429182,297.333313,0.0762154907,297.333313,0.1129439622,297.333313,0.1446564794,297.333313,0.14503856,
296.6666565,0.02200740576,296.6666565,0.07694732398,296.6666565,0.1137845367,296.6666565,0.1461647451,296.6666565,0.1465777904,
296,0.02215728723,296,0.07748188823,296,0.1149057746,296,0.1476055533,296,0.1479608715,
295.333313,0.02215744928,295.333313,0.07816345245,295.333313,0.1156456172,295.333313,0.1490631998,295.333313,0.1494096667,
294.6666565,0.02220446989,294.6666565,0.07873268425,294.6666565,0.1163328215,294.6666565,0.1502998769,294.6666565,0.1507397294,
294,0.02247732133,294,0.07936214656,294,0.1170576811,294,0.1515959948,294,0.1518346816,
293.333313,0.02228574641,293.333313,0.07986297458,293.333313,0.1176404357,293.333313,0.1526296288,293.333313,0.1529212594,
292.6666565,0.02234853245,292.6666565,0.08023949713,292.6666565,0.1180985197,292.6666565,0.1535572857,292.6666565,0.1538960189,
292,0.0224292092,292,0.08055583388,292,0.1185095087,292,0.1544541866,292,0.1547958851,
291.333313,0.0223425366,291.333313,0.08081068099,291.333313,0.1187509298,291.333313,0.1552449018,291.333313,0.1555464119,
290.6666565,0.02244469151,290.6666565,0.08101280779,290.6666565,0.1188602671,290.6666565,0.1555859745,290.6666565,0.1560706943,
290,0.02233798616,290,0.08123303205,290,0.1188427433,290,0.1560217887,290,0.1563046277,
289.333313,0.02243804,289.333313,0.08126208931,289.333313,0.118649818,289.333313,0.1562716812,289.333313,0.1566542387,
288.6666565,0.0223425366,288.6666565,0.08124055713,288.6666565,0.1185136586,288.6666565,0.1564353108,288.6666565,0.15670003,
288,0.0222826954,288,0.08099637181,288,0.1183956042,288,0.1563793123,288,0.1566352397,
287.333313,0.02234419994,287.333313,0.08088446409,287.333313,0.1180009246,287.333313,0.1561273932,287.333313,0.1564460397,
286.6666565,0.02232100815,286.6666565,0.08051258326,286.6666565,0.1177421287,286.6666565,0.1558125913,286.6666565,0.1562785059,
286,0.02215720527,286,0.08032224327,286,0.1170374155,286,0.155654788,286,0.1561302841,
285.333313,0.02226324007,285.333313,0.08005557209,285.333313,0.116573371,285.333313,0.155009076,285.333313,0.1556113064,
284.6666565,0.02221575007,284.6666565,0.07969142497,284.6666565,0.1159565747,284.6666565,0.1545292288,284.6666565,0.1549672782,
284,0.02212942019,284,0.0792331323,284,0.1152620018,284,0.1539572775,284,0.1543961912,
283.333313,0.02216262557,283.333313,0.07880651951,283.333313,0.1145076156,283.333313,0.1532580703,283.333313,0.1535921544,
282.6666565,0.02194167301,282.6666565,0.07820101827,282.6666565,0.1137386858,282.6666565,0.1523303241,282.6666565,0.1527362168,
282,0.02190905623,282,0.0777355656,282,0.1127467528,282,0.1515503526,282,0.1519152224,
281.333313,0.02172739245,281.333313,0.07714323699,281.333313,0.1118897945,281.333313,0.1504316926,281.333313,0.1508801728,
280.6666565,0.02152768709,280.6666565,0.07660594583,280.6666565,0.1109626964,280.6666565,0.1492894441,280.6666565,0.1497334987,
280,0.02149809338,280,0.07588069886,280,0.1099621728,280,0.1482880265,280,0.1487759054,
279.333313,0.02145408653,279.333313,0.07517026365,279.333313,0.1088518426,279.333313,0.1472011954,279.333313,0.1476267129,
278.6666565,0.0212223772,278.6666565,0.07434930652,278.6666565,0.1078461483,278.6666565,0.145916149,278.6666565,0.1462517977,
278,0.0211034175,278,0.07387270778,278,0.1066541672,278,0.1447003335,278,0.1451700181,
277.333313,0.0211084988,277.333313,0.07303006947,277.333313,0.105490014,277.333313,0.1435250491,277.333313,0.1439055204,
276.6666565,0.02098878101,276.6666565,0.07219544798,276.6666565,0.1046435833,276.6666565,0.1421423256,276.6666565,0.1425752342,
276,0.0208238773,276,0.07146573812,276,0.103287369,276,0.1408622861,276,0.1412887722,
275.333313,0.02076144703,275.333313,0.07084484398,275.333313,0.1022586226,275.333313,0.1396467686,275.333313,0.1400104165,
274.6666565,0.02066492662,274.6666565,0.0697447136,274.6666565,0.1011558697,274.6666565,0.1383845508,274.6666565,0.1387407333,
274,0.02060428262,274,0.06914117932,274,0.1001870483,274,0.1372462064,274,0.1376282871,
273.333313,0.02053344436,273.333313,0.06845837086,273.333313,0.09903119504,273.333313,0.1359904855,273.333313,0.1363988221,
272.6666565,0.02043879218,272.6666565,0.06772196293,272.6666565,0.09817748517,272.6666565,0.1350295097,272.6666565,0.1353724897,
272,0.02030217089,272,0.06707730144,272,0.09745787084,272,0.1340153962,272,0.1345226765,
271.333313,0.0202371031,271.333313,0.06648921967,271.333313,0.09657931328,271.333313,0.1331162751,271.333313,0.1334712952,
270.6666565,0.02035694011,270.6666565,0.06598964334,270.6666565,0.09605622292,270.6666565,0.1324982345,270.6666565,0.1329705566,
270,0.02015927434,270,0.06551192701,270,0.09555924684,270,0.1320141256,270,0.1324082017,
269.333313,0.02019824088,269.333313,0.06499092281,269.333313,0.09521304071,269.333313,0.1316703558,269.333313,0.1320694834,
268.6666565,0.02013991401,268.6666565,0.06467305124,268.6666565,0.09495066106,268.6666565,0.1315611154,268.6666565,0.1319565922,
268,0.0200586319,268,0.06435642391,268,0.09496853501,268,0.1316482723,268,0.1320676208,
267.333313,0.02010496333,267.333313,0.06422261149,267.333313,0.09510304779,267.333313,0.1319465935,267.333313,0.1323916316,
266.6666565,0.02014623024,266.6666565,0.06423807144,266.6666565,0.09550657123,266.6666565,0.1324882656,266.6666565,0.1329431981,
266,0.02014167607,266,0.06429614872,266,0.09586082399,266,0.1332632154,266,0.1335999966,
265.333313,0.02030651085,265.333313,0.06439362466,265.333313,0.09648620337,265.333313,0.1340840608,265.333313,0.1345221102,
264.6666565,0.02025421709,264.6666565,0.06454349309,264.6666565,0.0972674787,264.6666565,0.1353693008,264.6666565,0.1357111037,
264,0.02045219764,264,0.06493287534,264,0.09826212376,264,0.1367239356,264,0.1371917129,
263.333313,0.02042053267,263.333313,0.06530355662,263.333313,0.09918814152,263.333313,0.1383426189,263.333313,0.1387470067,
262.6666565,0.02056305483,262.6666565,0.06573093683,262.6666565,0.1005424634,262.6666565,0.1400660574,262.6666565,0.1405055672,
262,0.02066308074,262,0.06618420035,262,0.1018586904,262,0.1420385838,262,0.1424110383,
261.333313,0.02075666748,261.333313,0.06671478599,261.333313,0.1032180265,261.333313,0.1440755576,261.333313,0.1444719881,
260.6666565,0.02084897086,260.6666565,0.06742116064,260.6666565,0.1047208011,260.6666565,0.1460716724,260.6666565,0.1464947909,
260,0.02095979452,260,0.06801707298,260,0.1063500345,260,0.148328051,260,0.1486253738,
259.333313,0.02102521434,259.333313,0.06872580945,259.333313,0.1078180075,259.333313,0.1505888849,259.333313,0.1510188133,
258.6666565,0.02117236517,258.6666565,0.06928495318,258.6666565,0.1094937995,258.6666565,0.1527145058,258.6666565,0.1531648785,
258,0.02122751437,258,0.07006991655,258,0.1110117286,258,0.1548594087,258,0.1553504765,
257.333313,0.02145797573,257.333313,0.07066262513,257.333313,0.1124998629,257.333313,0.1570189744,257.333313,0.1574168056,
256.6666565,0.02165789343,256.6666565,0.0712011531,256.6666565,0.1138644069,256.6666565,0.1589173079,256.6666565,0.1594029218,
255.9999847,0.02159583382,255.9999847,0.07185899466,255.9999847,0.1151701361,255.9999847,0.1607402712,255.9999847,0.1611965746,
255.3333282,0.02178337611,255.3333282,0.07234314084,255.3333282,0.1163641885,255.3333282,0.162352562,255.3333282,0.1627381742,
254.6666565,0.02182635292,254.6666565,0.07269624621,254.6666565,0.1172734722,254.6666565,0.1637782007,254.6666565,0.1641287953,
253.9999847,0.02206094563,253.9999847,0.07298213989,253.9999847,0.1182777435,253.9999847,0.1650270075,253.9999847,0.165381223,
253.3333282,0.02195520513,253.3333282,0.07336197048,253.3333282,0.1188399494,253.3333282,0.1659421027,253.3333282,0.1663600504,
252.6666565,0.02207475528,252.6666565,0.07367289811,252.6666565,0.119502373,252.6666565,0.1668354869,252.6666565,0.1672206968,
251.9999847,0.02217352204,251.9999847,0.07390990108,251.9999847,0.1198962331,251.9999847,0.167407766,251.9999847,0.1677931398,
251.3333282,0.02221166342,251.3333282,0.07398561388,251.3333282,0.1202909648,251.3333282,0.1677912325,251.3333282,0.1682505161,
250.6666565,0.02235777117,250.6666565,0.07388694584,250.6666565,0.1205636188,250.6666565,0.168043077,250.6666565,0.1685050577,
249.9999847,0.02235777117,249.9999847,0.07383941859,249.9999847,0.1204541549,249.9999847,0.1683019549,249.9999847,0.1686600745,
249.3333282,0.02232141607,249.3333282,0.07376400381,249.3333282,0.1203945801,249.3333282,0.1680912077,249.3333282,0.1684489697,
248.6666565,0.02239252068,248.6666565,0.07353207469,248.6666565,0.1202205941,248.6666565,0.1676604748,248.6666565,0.1681899875,
247.9999847,0.02252653055,247.9999847,0.07329062372,247.9999847,0.1199478209,247.9999847,0.1673108637,247.9999847,0.1676740348,
247.3333282,0.0225769449,247.3333282,0.07313463837,247.3333282,0.1194380224,247.3333282,0.1667046398,247.3333282,0.1670245081,
246.6666565,0.02255635895,246.6666565,0.07271721214,246.6666565,0.1190621108,246.6666565,0.1659383029,246.6666565,0.1662727296,
245.9999847,0.0227207765,245.9999847,0.0724978596,245.9999847,0.1183533072,245.9999847,0.1651148349,245.9999847,0.1654570252,
245.3333282,0.02269516513,245.3333282,0.07202622294,245.3333282,0.1176955253,245.3333282,0.1640607715,245.3333282,0.1643429548,
244.6666565,0.0227816347,244.6666565,0.07158043236,244.6666565,0.1169157252,244.6666565,0.163048327,244.6666565,0.163440749,
243.9999847,0.02296412177,243.9999847,0.07108908892,243.9999847,0.1161912307,243.9999847,0.1617721319,243.9999847,0.162002638,
243.3333282,0.02299316041,243.3333282,0.07073963434,243.3333282,0.115332894,243.3333282,0.1606982201,243.3333282,0.1609890163,
242.6666565,0.02311788127,242.6666565,0.07025481015,242.6666565,0.1145454571,242.6666565,0.1594873518,242.6666565,0.1597809345,
241.9999847,0.02336584777,241.9999847,0.06963810325,241.9999847,0.1137303114,241.9999847,0.1583835632,241.9999847,0.1585492194,
241.3333282,0.02347433753,241.3333282,0.06938516349,241.3333282,0.1130062789,241.3333282,0.157301411,241.3333282,0.1572973132,
240.6666565,0.02366785891,240.6666565,0.0689483583,240.6666565,0.1122972965,240.6666565,0.1560821533,240.6666565,0.1562571824,
239.9999847,0.02396121621,239.9999847,0.06852413714,239.9999847,0.111783199,239.9999847,0.1553833485,239.9999847,0.1554156691,
239.3333282,0.02411108837,239.3333282,0.06828884035,239.3333282,0.1113596931,239.3333282,0.1546293944,239.3333282,0.15478912,
238.6666565,0.02450374514,238.6666565,0.0681143254,238.6666565,0.1110567525,238.6666565,0.1537408382,238.6666565,0.1536765546,
237.9999847,0.02495188825,237.9999847,0.06798852235,237.9999847,0.1106602699,237.9999847,0.1529522985,237.9999847,0.1528330743,
237.3333282,0.02520427667,237.3333282,0.06800762564,237.3333282,0.1107378229,237.3333282,0.1528162509,237.3333282,0.152876541,
236.6666565,0.02557689138,236.6666565,0.06778353453,236.6666565,0.1105322018,236.6666565,0.1521206796,236.6666565,0.15218319,
235.9999847,0.02602320164,235.9999847,0.06800505519,235.9999847,0.1113733724,235.9999847,0.1522578299,235.9999847,0.1521196812,
235.3333282,0.02661837451,235.3333282,0.06830678135,235.3333282,0.1111868098,235.3333282,0.1523306519,235.3333282,0.1524318606,
234.6666565,0.02752877027,234.6666565,0.06844067574,234.6666565,0.1117907017,234.6666565,0.1525724977,234.6666565,0.1528166533,
233.9999847,0.02776974812,233.9999847,0.06895178556,233.9999847,0.1126762182,233.9999847,0.153584227,233.9999847,0.1531605273,
233.3333282,0.02784674615,233.3333282,0.06982205063,233.3333282,0.1146445051,233.3333282,0.154609412,233.3333282,0.1541246772,
232.6666565,0.0287036635,232.6666565,0.07083439082,232.6666565,0.1151478961,232.6666565,0.1563514769,232.6666565,0.1552521288,
231.9999847,0.0287576206,231.9999847,0.07076239586,231.9999847,0.1159481928,231.9999847,0.1562281698,231.9999847,0.1557975411,
231.3333282,0.03082663752,231.3333282,0.07065089792,231.3333282,0.1169936582,231.3333282,0.1550251693,231.3333282,0.1541445702,
230.6666565,0.02692629024,230.6666565,0.06938301027,230.6666565,0.1158879846,230.6666565,0.1535005122,230.6666565,0.1530282497,
229.9999847,0.0294898767,229.9999847,0.06585469842,229.9999847,0.1099287271,229.9999847,0.1413301229,229.9999847,0.142264396,
229.3333282,0.02576511726,229.3333282,0.0592228137,229.3333282,0.104238227,229.3333282,0.1278626323,229.3333282,0.1304757595,
228.6666565,0.02652634867,228.6666565,0.0531154424,228.6666565,0.08671404421,228.6666565,0.1041357666,228.6666565,0.1060024202,
227.9999847,0.01380597427,227.9999847,0.03113669157,227.9999847,0.06290417165,227.9999847,0.06759984046,227.9999847,0.0666635707,
227.3333282,0.01795622893,227.3333282,0.01989855058,227.3333282,0.03862127662,227.3333282,0.04853585362,227.3333282,0.05208378285,
226.6666565,0.009896862321,226.6666565,0.01862443797,226.6666565,0.02367955819,226.6666565,0.05934461951,226.6666565,0.04898797721,
225.9999847,-0.006917518098,225.9999847,0.01982248947,225.9999847,0.0280082915,225.9999847,0.03929237649,225.9999847,0.03769799694,
225.3333282,0.01284690946,225.3333282,0.01099279802,225.3333282,0.02358028293,225.3333282,0.03742907196,225.3333282,0.0410428308,
224.6666565,0.01354978513,224.6666565,0.02381166816,224.6666565,0.01185508072,224.6666565,0.0313304849,224.6666565,0.04919378832,
223.9999847,-0.005530788563,223.9999847,0.01982844993,223.9999847,0.01535321027,223.9999847,0.02945319749,223.9999847,0.03781371191,
223.333313,0.007612714078,223.333313,0.01371761318,223.333313,0.02082235552,223.333313,0.03213429451,223.333313,0.03120327368,
222.6666565,0.01096444391,222.6666565,0.02280157618,222.6666565,0.02298175171,222.6666565,0.04129068926,222.6666565,0.0244379621,
221.9999847,0.01779632829,221.9999847,0.03022356518,221.9999847,0.01577957533,221.9999847,0.04505009577,221.9999847,0.03661028668,
221.333313,0.01371040009,221.333313,0.00610323716,221.333313,0.02033195458,221.333313,0.03288039938,221.333313,0.02690373547,
220.6666565,-0.002164411126,220.6666565,0.0238683857,220.6666565,0.01961201429,220.6666565,0.03493906558,220.6666565,0.02876578085,
219.9999847,0.01495228708,219.9999847,0.01352647133,219.9999847,0.006414543837,219.9999847,0.03479522467,219.9999847,0.01407071017,
219.333313,0.01643909141,219.333313,0.03263849393,219.333313,0.02336579375,219.333313,0.02754137479,219.333313,0.03046018444,
218.6666565,0.004442152102,218.6666565,0.01828492619,218.6666565,0.00197510561,218.6666565,0.04334125295,218.6666565,0.0473013483,
217.9999847,0.002697680378,217.9999847,0.02075226791,217.9999847,0.00847838819,217.9999847,0.02263849229,217.9999847,0.03894836083,
217.333313,-0.003186595626,217.333313,0.02757662348,217.333313,0.01845572889,217.333313,0.0128181139,217.333313,0.01152100414,
216.6666565,0.01092565991,216.6666565,0.006609808654,216.6666565,0.01950998232,216.6666565,0.01986053213,216.6666565,0.04449280351,
215.9999847,0.02802223526,215.9999847,0.005936986767,215.9999847,0.009387027472,215.9999847,0.03059201129,215.9999847,0.03366481885,
215.333313,0.0003384355514,215.333313,0.0009758835076,215.333313,0.02610684559,215.333313,0.03752896935,215.333313,0.06558950245,
214.6666565,0.01434489246,214.6666565,0.02278929949,214.6666565,0.0367170088,214.6666565,-0.001161140506,214.6666565,0.02512865141,
213.9999847,0.08210464567,213.9999847,0.03133057058,213.9999847,0.01624043286,213.9999847,0.02142101713,213.9999847,0.01253506262,
213.333313,-0.01941520907,213.333313,0.02701415867,213.333313,0.004222085699,213.333313,0.003000402823,213.333313,0.03271510452,
212.6666565,0.01049795747,212.6666565,0.02634070814,212.6666565,0.03484556824,212.6666565,0.06255594641,212.6666565,0.03948627785,
211.9999847,0.008095388301,211.9999847,0.01356054749,211.9999847,-0.000775265391,211.9999847,0.02751834504,211.9999847,0.04010144994,
211.333313,0.00801187288,211.333313,0.002034268575,211.333313,0.02044310607,211.333313,0.01905608363,211.333313,0.02377858199,
210.6666565,-0.004056175239,210.6666565,0.01775682159,210.6666565,0.01574537717,210.6666565,0.01946807094,210.6666565,0.02578519657,
209.9999847,0.006658986676,209.9999847,0.03739386052,209.9999847,-0.0004434590228,209.9999847,0.04570800439,209.9999847,0.01866921224,
209.333313,0.01278889459,209.333313,0.007043088786,209.333313,0.02826591767,209.333313,0.02826356888,209.333313,0.03237508237,
208.6666565,-0.01254447736,208.6666565,0.005879389122,208.6666565,0.0199818369,208.6666565,0.0140156867,208.6666565,0.03331555426,
207.9999847,-0.02764193527,207.9999847,-0.0002656640718,207.9999847,-0.02737495676,207.9999847,0.01526370272,207.9999847,0.0297044199,
207.333313,0.002413571579,207.333313,0.02861879952,207.333313,0.02205032483,207.333313,0.003048861166,207.333313,0.0006955172285,
206.6666565,0.05375756696,206.6666565,-0.005421845242,206.6666565,0.001952430699,206.6666565,0.02069959603,206.6666565,0.02056788467,
205.9999847,0.01782559045,205.9999847,0.02289286815,205.9999847,-0.01267477963,205.9999847,0.03429470956,205.9999847,0.02471690625,
205.333313,0.003934523091,205.333313,-0.002812804421,205.333313,0.01819635183,205.333313,0.02009924315,205.333313,0.01289343927,
204.6666565,0.02826550417,204.6666565,0.012690478,204.6666565,0.01497326605,204.6666565,0.008179948665,204.6666565,0.01554521173,
203.9999847,0.02358788066,203.9999847,0.002042044885,203.9999847,0.008299220353,203.9999847,0.01927992888,203.9999847,-0.02241331525,
203.333313,0.008412983268,203.333313,0.02641753666,203.333313,-0.01117981505,203.333313,0.01692565344,203.333313,0.008771274239,
202.6666565,-0.000109846158,202.6666565,-0.007284129038,202.6666565,-0.06894459575,202.6666565,0.02021464705,202.6666565,0.02939970791,
201.9999847,0.03478549421,201.9999847,0.02860826626,201.9999847,0.03257336468,201.9999847,0.04607437551,201.9999847,0.02031139284,
201.333313,0.02524007857,201.333313,0.04065944627,201.333313,0.01288637239,201.333313,0.06898761541,201.333313,0.02764583565,
200.6666565,0.009678965434,200.6666565,0.02776169032,200.6666565,-0.01569420099,200.6666565,0.01745385304,200.6666565,0.007848581299,
199.9999847,-0.006061567459,199.9999847,0.02298472635,199.9999847,-0.03142928705,199.9999847,0.0232055001,199.9999847,0.02803038061,

AU_030_A1 + buffer time 0 hrs,
AU_030_A1 + buffer time 0 hrs
Collection Time: 2023-10-25 9:58:34 AM
Operator Name  :
Scan Version 6.4.0.1610
Parameter List :
Instrument  Cary 7000
Instrument Version  3.07
Method Log     :
Method Name    :
Date/Time stamp: 2023-10-25 9:52:30 AM
Method Modifications:
ConcentrationReportSelected Changed: 2023-10-25 9:52:31 AM, Old:Choice 0, New:Choice 1
ConcentrationReportSelected Changed: 2023-10-25 9:52:31 AM, Old:ON, New:Choice 0
MCAReportSelected Changed: 2023-10-25 9:52:31 AM, Old:Choice 0, New:Choice 1
MCAReportSelected Changed: 2023-10-25 9:52:31 AM, Old:ON, New:Choice 0
X Start nm Changed: 2023-10-25 9:53:14 AM, Old:800.000, New:650.000
UVVIS Scan Rate nm Changed: 2023-10-25 9:53:14 AM, Old:  602.007, New:  600.000
NIR Scan Rate nm Changed: 2023-10-25 9:53:14 AM, Old:    0.004, New:   12.000
Common Interval nm Changed: 2023-10-25 9:53:14 AM, Old:    1.000, New:    0.667
Baseline Correction Changed: 2023-10-25 9:53:14 AM, Old:0, New:2
Sipper Type Changed: 2023-10-25 9:53:14 AM, Old:Internal RSA, New:External sipper
End Method Modifications
<Current Wavelength> , 200.000
<SBW (nm)> , 2.00
<Energy> , 5754.40
<Slit Height> , Full

au-030-a1 + buffer 4 hrs1,
au-030-a1 + buffer 4 hrs1
Collection Time: 2023-10-25 2:47:23 PM
Operator Name  :
Scan Version 6.4.0.1610
Parameter List :
Instrument  Cary 7000
Instrument Version  3.07
Method Log     :
Method Name    :
Date/Time stamp: 2023-10-25 2:29:36 PM
Method Modifications:
ConcentrationReportSelected Changed: 2023-10-25 2:29:36 PM, Old:Choice 0, New:Choice 1
ConcentrationReportSelected Changed: 2023-10-25 2:29:36 PM, Old:ON, New:Choice 0
MCAReportSelected Changed: 2023-10-25 2:29:36 PM, Old:Choice 0, New:Choice 1
MCAReportSelected Changed: 2023-10-25 2:29:36 PM, Old:ON, New:Choice 0
X Start nm Changed: 2023-10-25 2:32:01 PM, Old:800.000, New:650.000
UVVIS Scan Rate nm Changed: 2023-10-25 2:32:01 PM, Old:  602.007, New:  600.000
NIR Scan Rate nm Changed: 2023-10-25 2:32:01 PM, Old:    0.004, New:   12.000
Common Interval nm Changed: 2023-10-25 2:32:01 PM, Old:    1.000, New:    0.667
Baseline Correction Changed: 2023-10-25 2:32:01 PM, Old:0, New:2
Sipper Type Changed: 2023-10-25 2:32:01 PM, Old:Internal RSA, New:External sipper
End Method Modifications
<Current Wavelength> , 200.000
<SBW (nm)> , 2.00
<Energy> , 5754.40
<Slit Height> , Full

AU-030-A1+buffer 23 hrs,
AU-030-A1+buffer 23 hrs
Collection Time: 2023-10-26 9:19:24 AM
Operator Name  :
Scan Version 6.4.0.1610
Parameter List :
Instrument  Cary 7000
Instrument Version  3.07
Method Log     :
Method Name    :
Date/Time stamp: 2023-10-26 9:13:47 AM
Method Modifications:
ConcentrationReportSelected Changed: 2023-10-26 9:13:47 AM, Old:Choice 0, New:Choice 1
ConcentrationReportSelected Changed: 2023-10-26 9:13:47 AM, Old:ON, New:Choice 0
MCAReportSelected Changed: 2023-10-26 9:13:47 AM, Old:Choice 0, New:Choice 1
MCAReportSelected Changed: 2023-10-26 9:13:47 AM, Old:ON, New:Choice 0
X Start nm Changed: 2023-10-26 9:14:26 AM, Old:800.000, New:650.000
UVVIS Scan Rate nm Changed: 2023-10-26 9:14:26 AM, Old:  602.007, New:  600.000
NIR Scan Rate nm Changed: 2023-10-26 9:14:26 AM, Old:    0.004, New:   12.000
Common Interval nm Changed: 2023-10-26 9:14:26 AM, Old:    1.000, New:    0.667
Baseline Correction Changed: 2023-10-26 9:14:26 AM, Old:0, New:2
Sipper Type Changed: 2023-10-26 9:14:26 AM, Old:Internal RSA, New:External sipper
End Method Modifications
<Current Wavelength> , 200.000
<SBW (nm)> , 2.00
<Energy> , 5754.40
<Slit Height> , Full

AU+030_A1 + buffer time 48 hrs,
AU+030_A1 + buffer time 48 hrs
Collection Time: 2023-10-27 9:56:11 AM
Operator Name  :
Scan Version 6.4.0.1610
Parameter List :
Instrument  Cary 7000
Instrument Version  3.07
Method Log     :
Method Name    :
Date/Time stamp: 2023-10-27 9:46:34 AM
Method Modifications:
ConcentrationReportSelected Changed: 2023-10-27 9:46:34 AM, Old:Choice 0, New:Choice 1
ConcentrationReportSelected Changed: 2023-10-27 9:46:34 AM, Old:ON, New:Choice 0
MCAReportSelected Changed: 2023-10-27 9:46:34 AM, Old:Choice 0, New:Choice 1
MCAReportSelected Changed: 2023-10-27 9:46:34 AM, Old:ON, New:Choice 0
X Start nm Changed: 2023-10-27 9:48:54 AM, Old:800.000, New:650.000
UVVIS Scan Rate nm Changed: 2023-10-27 9:48:54 AM, Old:  602.007, New:  600.000
NIR Scan Rate nm Changed: 2023-10-27 9:48:54 AM, Old:    0.004, New:   12.000
Common Interval nm Changed: 2023-10-27 9:48:54 AM, Old:    1.000, New:    0.667
Baseline Correction Changed: 2023-10-27 9:48:54 AM, Old:0, New:2
Sipper Type Changed: 2023-10-27 9:48:54 AM, Old:Internal RSA, New:External sipper
End Method Modifications
<Current Wavelength> , 200.000
<SBW (nm)> , 2.00
<Energy> , 5754.40
<Slit Height> , Full

AU+030_A1 + buffer time 48 hrs1,
AU+030_A1 + buffer time 48 hrs1
Collection Time: 2023-10-27 9:57:47 AM
Operator Name  :
Scan Version 6.4.0.1610
Parameter List :
Instrument  Cary 7000
Instrument Version  3.07
Method Log     :
Method Name    :
Date/Time stamp: 2023-10-27 9:46:34 AM
Method Modifications:
ConcentrationReportSelected Changed: 2023-10-27 9:46:34 AM, Old:Choice 0, New:Choice 1
ConcentrationReportSelected Changed: 2023-10-27 9:46:34 AM, Old:ON, New:Choice 0
MCAReportSelected Changed: 2023-10-27 9:46:34 AM, Old:Choice 0, New:Choice 1
MCAReportSelected Changed: 2023-10-27 9:46:34 AM, Old:ON, New:Choice 0
X Start nm Changed: 2023-10-27 9:48:54 AM, Old:800.000, New:650.000
UVVIS Scan Rate nm Changed: 2023-10-27 9:48:54 AM, Old:  602.007, New:  600.000
NIR Scan Rate nm Changed: 2023-10-27 9:48:54 AM, Old:    0.004, New:   12.000
Common Interval nm Changed: 2023-10-27 9:48:54 AM, Old:    1.000, New:    0.667
Baseline Correction Changed: 2023-10-27 9:48:54 AM, Old:0, New:2
Sipper Type Changed: 2023-10-27 9:48:54 AM, Old:Internal RSA, New:External sipper
End Method Modifications
<Current Wavelength> , 200.000
<SBW (nm)> , 2.00
<Energy> , 5754.40
<Slit Height> , Full

